pru
Integration time [ms]:   0,150
Averaging Nr. [scans]: 30
Smoothing Nr. [pixels]: 0
Data measured with spectrometer [name]: 7416147SP
Wave   ;Sample   ;Dark     ;Reference
[nm]   ;[counts] ;[counts] ;[counts] 

230,218;  294,397;  290,315;  293,845
230,311;  321,497;  319,885;  318,565
230,404;  315,797;  309,855;  312,875
230,497;  317,563;  317,385;  315,715
230,591;  337,730;  333,426;  335,355
230,684;  331,430;  326,486;  329,355
230,777;  315,363;  311,736;  314,765
230,870;  316,097;  313,326;  316,955
230,964;  316,630;  310,885;  314,745
231,057;  340,297;  342,496;  343,475
231,150;  333,030;  331,695;  332,715
231,243;  331,630;  330,635;  332,775
231,336;  337,730;  331,375;  331,335
231,430;  319,763;  316,496;  317,715
231,523;  326,630;  324,516;  326,785
231,616;  311,430;  305,445;  309,685
231,709;  345,630;  328,065;  330,025
231,802;  316,863;  300,945;  301,885
231,895;  316,897;  299,836;  300,315
231,988;  330,430;  315,655;  318,535
232,082;  314,997;  298,155;  302,425
232,175;  315,830;  302,155;  306,175
232,268;  319,597;  301,266;  305,345
232,361;  316,397;  304,806;  307,515
232,454;  339,563;  322,396;  323,025
232,547;  336,863;  318,716;  322,655
232,640;  309,197;  296,766;  294,035
232,733;  329,730;  314,116;  323,045
232,826;  309,363;  288,915;  295,035
232,919;  328,863;  313,826;  312,665
233,012;  303,030;  293,646;  292,775
233,105;  320,030;  294,766;  298,815
233,199;  316,763;  299,875;  304,045
233,292;  307,630;  293,475;  296,235
233,385;  274,197;  263,426;  262,225
233,478;  312,230;  293,885;  295,685
233,571;  339,163;  324,586;  327,675
233,664;  320,730;  305,996;  308,435
233,757;  298,430;  280,796;  281,395
233,850;  299,530;  282,255;  285,825
233,943;  305,363;  290,896;  292,195
234,035;  317,763;  300,576;  302,355
234,128;  299,630;  281,836;  283,945
234,221;  319,297;  297,665;  298,245
234,314;  321,797;  304,915;  311,975
234,407;  325,230;  302,935;  309,075
234,500;  294,697;  277,625;  281,875
234,593;  304,230;  287,095;  285,735
234,686;  309,363;  293,746;  293,765
234,779;  305,397;  291,266;  293,165
234,872;  295,197;  281,806;  281,565
234,965;  302,563;  292,806;  290,795
235,058;  292,330;  274,155;  276,215
235,150;  309,163;  285,776;  290,805
235,243;  298,463;  282,736;  284,425
235,336;  320,497;  300,695;  304,545
235,429;  288,930;  273,646;  272,515
235,522;  345,563;  330,996;  335,445
235,615;  282,763;  262,276;  265,145
235,707;  299,563;  282,415;  282,335
235,800;  303,297;  289,815;  290,515
235,893;  303,863;  289,956;  292,955
235,986;  318,730;  298,266;  299,325
236,079;  299,963;  286,586;  291,125
236,171;  287,997;  270,725;  271,865
236,264;  331,030;  312,635;  313,275
236,357;  310,263;  290,986;  293,865
236,450;  325,363;  315,225;  317,215
236,542;  287,030;  267,065;  272,575
236,635;  329,330;  313,546;  316,385
236,728;  304,297;  285,516;  288,115
236,821;  294,130;  280,165;  283,715
236,913;  294,263;  277,896;  276,315
237,006;  287,697;  271,605;  275,435
237,099;  301,297;  283,896;  285,575
237,191;  316,063;  298,796;  300,225
237,284;  285,463;  267,896;  272,995
237,377;  310,863;  294,725;  297,495
237,470;  302,330;  285,415;  287,875
237,562;  297,263;  276,866;  275,785
237,655;  342,163;  320,945;  324,565
237,747;  311,930;  292,695;  295,845
237,840;  324,630;  313,086;  314,435
237,933;  320,197;  300,445;  301,555
238,025;  319,997;  301,415;  301,595
238,118;  297,430;  282,456;  287,755
238,211;  287,697;  268,155;  272,375
238,303;  287,263;  272,296;  273,415
238,396;  285,863;  268,065;  271,945
238,488;  304,530;  292,625;  291,075
238,581;  300,830;  287,855;  289,445
238,673;  303,697;  285,766;  286,865
238,766;  296,297;  282,635;  283,185
238,859;  291,797;  273,586;  276,105
238,951;  298,963;  281,095;  282,835
239,044;  291,563;  276,496;  279,525
239,136;  286,330;  269,035;  271,705
239,229;  300,430;  280,665;  283,435
239,321;  293,463;  271,255;  276,105
239,414;  307,730;  289,875;  292,345
239,506;  304,763;  284,625;  290,655
239,599;  340,497;  316,315;  315,935
239,691;  306,863;  287,945;  287,755
239,784;  321,763;  301,926;  304,175
239,876;  308,597;  295,005;  294,715
239,969;  300,397;  284,426;  288,635
240,061;  295,030;  269,505;  272,655
240,153;  302,030;  276,776;  278,405
240,246;  305,530;  287,635;  287,925
240,338;  326,830;  315,285;  314,405
240,431;  289,197;  268,896;  270,455
240,523;  287,663;  269,315;  270,665
240,615;  317,197;  299,086;  301,495
240,708;  322,063;  309,945;  312,145
240,800;  303,530;  286,956;  289,175
240,893;  287,530;  272,216;  274,965
240,985;  306,630;  286,116;  289,995
241,077;  288,097;  269,866;  271,905
241,170;  316,363;  300,355;  300,805
241,262;  307,830;  293,695;  290,825
241,354;  268,797;  252,305;  253,985
241,447;  306,363;  281,326;  283,905
241,539;  283,563;  266,746;  270,745
241,631;  338,263;  314,366;  317,275
241,724;  281,097;  259,135;  260,655
241,816;  300,163;  279,385;  281,545
241,908;  301,530;  275,056;  280,445
242,000;  295,963;  277,625;  279,505
242,093;  299,897;  277,725;  280,745
242,185;  294,997;  277,736;  277,535
242,277;  293,630;  274,695;  277,115
242,369;  303,963;  282,146;  286,335
242,462;  295,730;  274,405;  274,215
242,554;  294,097;  277,146;  281,105
242,646;  299,197;  283,146;  286,575
242,738;  325,297;  303,255;  307,195
242,830;  277,363;  259,026;  260,415
242,923;  314,297;  297,035;  299,015
243,015;  288,930;  268,655;  266,675
243,107;  288,997;  267,676;  271,255
243,199;  298,397;  276,345;  278,365
243,291;  293,097;  272,125;  276,215
243,383;  271,330;  254,826;  256,465
243,476;  278,830;  269,435;  268,005
243,568;  297,897;  280,915;  284,885
243,660;  299,697;  273,385;  279,575
243,752;  302,430;  279,796;  287,275
243,844;  319,830;  300,766;  302,705
243,936;  306,363;  291,956;  293,555
244,028;  323,297;  304,796;  307,475
244,120;  269,630;  254,346;  255,525
244,212;  311,163;  293,826;  293,755
244,305;  285,830;  268,496;  267,935
244,397;  307,297;  289,165;  291,675
244,489;  322,297;  304,276;  307,925
244,581;  317,097;  299,255;  300,795
244,673;  298,330;  281,806;  283,225
244,765;  308,397;  286,035;  290,565
244,857;  306,297;  284,986;  287,335
244,949;  304,130;  283,956;  284,945
245,041;  267,397;  250,865;  255,005
245,133;  308,997;  293,695;  296,625
245,225;  297,397;  277,915;  280,695
245,317;  303,797;  289,456;  289,025
245,409;  282,363;  263,755;  269,375
245,501;  301,797;  288,496;  293,045
245,593;  307,830;  286,255;  290,055
245,685;  299,663;  285,405;  288,735
245,776;  298,697;  285,945;  287,235
245,868;  284,163;  271,276;  272,565
245,960;  277,563;  265,875;  263,405
246,052;  321,363;  310,766;  310,445
246,144;  303,497;  294,165;  294,205
246,236;  295,563;  283,576;  283,565
246,328;  305,563;  291,345;  293,965
246,420;  298,497;  279,746;  280,855
246,512;  331,497;  308,236;  310,455
246,604;  296,563;  282,526;  286,825
246,695;  290,663;  273,345;  272,135
246,787;  314,197;  293,526;  301,145
246,879;  307,230;  292,716;  297,145
246,971;  311,697;  299,276;  300,965
247,063;  297,363;  273,255;  278,605
247,155;  309,463;  294,516;  297,195
247,246;  303,763;  283,266;  283,715
247,338;  298,230;  288,116;  294,265
247,430;  311,730;  299,945;  303,475
247,522;  313,230;  297,546;  300,555
247,613;  314,063;  296,586;  299,675
247,705;  308,597;  286,896;  288,445
247,797;  332,463;  305,776;  307,475
247,889;  319,297;  294,706;  295,475
247,980;  317,197;  285,676;  291,995
248,072;  333,030;  282,845;  285,895
248,164;  349,230;  293,216;  298,385
248,256;  310,430;  271,366;  274,105
248,347;  333,563;  309,785;  311,065
248,439;  298,897;  283,165;  282,675
248,531;  317,163;  303,885;  304,835
248,622;  317,830;  307,206;  308,325
248,714;  293,463;  276,945;  278,365
248,806;  305,330;  293,655;  298,015
248,897;  306,697;  291,535;  292,985
248,989;  275,797;  263,956;  263,855
249,081;  299,397;  283,355;  284,905
249,172;  308,397;  289,926;  295,135
249,264;  291,630;  272,076;  273,435
249,356;  287,030;  269,326;  273,745
249,447;  301,030;  282,176;  284,525
249,539;  306,030;  283,086;  284,645
249,630;  301,330;  289,875;  288,495
249,722;  332,697;  313,276;  315,395
249,813;  301,997;  280,496;  284,125
249,905;  310,797;  289,426;  293,665
249,997;  303,497;  281,445;  280,615
250,088;  306,863;  282,255;  288,985
250,180;  305,763;  283,695;  284,575
250,271;  305,597;  281,195;  280,335
250,363;  336,897;  319,105;  320,755
250,454;  294,030;  273,035;  275,615
250,546;  312,963;  285,926;  289,415
250,637;  284,497;  264,445;  261,845
250,729;  297,863;  266,505;  269,555
250,820;  313,930;  289,915;  292,965
250,912;  290,630;  262,355;  267,085
251,003;  306,697;  278,396;  280,475
251,095;  307,163;  282,086;  284,555
251,186;  298,597;  271,415;  274,775
251,277;  299,463;  271,986;  275,265
251,369;  308,997;  275,975;  275,105
251,460;  304,730;  271,456;  273,815
251,552;  314,230;  278,475;  279,655
251,643;  308,863;  268,796;  267,375
251,735;  312,697;  265,246;  267,375
251,826;  301,863;  258,016;  263,245
251,917;  325,163;  278,035;  279,115
252,009;  326,563;  273,396;  275,605
252,100;  333,030;  281,426;  283,345
252,191;  352,263;  289,996;  292,015
252,283;  342,463;  265,095;  267,705
252,374;  368,930;  278,296;  278,375
252,465;  393,697;  295,405;  298,605
252,557;  394,597;  283,576;  286,365
252,648;  390,763;  265,146;  268,635
252,739;  426,930;  280,516;  282,125
252,831;  428,197;  270,836;  280,355
252,922;  452,230;  282,296;  280,045
253,013;  503,197;  273,956;  284,285
253,104;  567,263;  270,076;  270,335
253,196;  672,130;  271,366;  271,175
253,287;  827,863;  281,836;  277,135
253,378; 1201,797;  276,276;  277,975
253,469; 3708,297;  272,385;  276,445
253,561;20946,797;  273,496;  278,855
253,652;41512,031;  282,266;  280,015
253,743; 6516,530;  276,216;  280,985
253,834;  615,797;  259,146;  265,875
253,926;  508,997;  262,605;  267,485
254,017;  475,630;  284,236;  290,235
254,108;  449,197;  291,836;  290,565
254,199;  431,597;  285,326;  291,185
254,290;  438,463;  312,725;  313,865
254,381;  413,330;  287,076;  291,155
254,472;  414,330;  291,935;  300,495
254,564;  416,697;  312,766;  307,565
254,655;  395,130;  304,755;  308,105
254,746;  356,063;  264,896;  264,025
254,837;  385,763;  293,105;  298,435
254,928;  356,230;  266,836;  271,975
255,019;  367,830;  283,505;  286,805
255,110;  370,030;  300,165;  301,665
255,201;  353,197;  281,155;  287,655
255,292;  379,897;  312,706;  316,275
255,383;  350,830;  275,785;  275,725
255,474;  341,597;  273,306;  273,095
255,566;  350,363;  283,926;  286,645
255,657;  350,663;  298,556;  302,445
255,748;  316,130;  271,415;  278,125
255,839;  320,830;  280,695;  282,485
255,930;  323,463;  287,866;  289,735
256,021;  334,463;  298,845;  298,115
256,112;  308,963;  278,456;  278,735
256,203;  346,630;  311,866;  313,365
256,294;  331,330;  293,496;  299,575
256,384;  312,630;  270,565;  275,715
256,475;  322,630;  290,996;  294,595
256,566;  313,197;  281,246;  287,825
256,657;  304,363;  278,945;  278,915
256,748;  298,230;  281,285;  284,675
256,839;  292,497;  274,426;  273,555
256,930;  300,930;  279,165;  283,055
257,021;  326,263;  304,155;  306,465
257,112;  327,830;  304,926;  309,235
257,203;  276,197;  258,445;  259,825
257,294;  272,963;  254,465;  262,175
257,385;  310,030;  288,526;  294,205
257,475;  298,163;  279,135;  278,545
257,566;  307,963;  287,586;  292,255
257,657;  290,263;  269,595;  270,025
257,748;  292,097;  275,935;  276,095
257,839;  299,630;  287,915;  286,025
257,930;  299,030;  285,736;  290,395
258,020;  283,030;  269,716;  271,535
258,111;  281,430;  262,225;  263,255
258,202;  300,730;  288,326;  289,935
258,293;  296,830;  284,655;  285,305
258,384;  322,030;  305,595;  307,665
258,474;  301,763;  288,676;  291,995
258,565;  281,230;  271,635;  273,435
258,656;  301,897;  292,966;  295,145
258,747;  283,963;  271,475;  275,425
258,837;  293,263;  274,246;  273,695
258,928;  296,463;  275,785;  278,605
259,019;  288,863;  268,415;  270,595
259,109;  286,563;  269,685;  269,425
259,200;  300,497;  286,105;  289,815
259,291;  279,463;  269,975;  271,655
259,381;  304,230;  293,026;  295,635
259,472;  308,663;  295,796;  296,545
259,563;  310,697;  303,065;  305,845
259,653;  288,063;  278,296;  281,385
259,744;  282,030;  268,826;  267,735
259,835;  313,763;  300,975;  302,815
259,925;  287,130;  271,505;  277,075
260,016;  299,897;  286,746;  287,585
260,107;  273,430;  258,035;  264,715
260,197;  296,797;  283,975;  286,325
260,288;  290,563;  274,565;  279,155
260,378;  280,497;  267,195;  271,275
260,469;  299,597;  285,915;  288,765
260,560;  274,163;  266,146;  269,495
260,650;  288,563;  271,736;  275,665
260,741;  294,497;  276,366;  279,035
260,831;  286,597;  272,855;  275,905
260,922;  277,863;  266,206;  269,545
261,012;  282,863;  277,665;  278,255
261,103;  310,663;  301,785;  302,875
261,193;  310,063;  302,086;  303,915
261,284;  283,363;  271,806;  273,005
261,374;  307,297;  296,385;  303,855
261,465;  298,997;  287,755;  289,435
261,555;  289,463;  282,255;  280,715
261,646;  308,597;  292,475;  294,375
261,736;  296,263;  287,435;  290,535
261,827;  290,430;  283,716;  284,935
261,917;  320,963;  311,736;  311,595
262,007;  291,963;  283,986;  288,075
262,098;  289,163;  289,445;  287,725
262,188;  336,097;  326,655;  333,475
262,279;  303,430;  300,185;  299,795
262,369;  297,563;  286,285;  289,225
262,459;  298,963;  288,246;  290,365
262,550;  305,430;  303,266;  301,565
262,640;  280,563;  273,005;  276,555
262,731;  302,730;  300,935;  299,335
262,821;  320,930;  310,535;  312,255
262,911;  311,197;  297,875;  298,285
263,002;  294,663;  289,625;  290,825
263,092;  307,630;  303,956;  306,295
263,182;  288,030;  284,806;  285,755
263,273;  291,597;  285,426;  289,395
263,363;  303,330;  300,746;  299,385
263,453;  272,430;  267,375;  268,605
263,543;  301,730;  289,815;  289,615
263,634;  274,130;  266,516;  266,365
263,724;  301,830;  292,586;  293,065
263,814;  310,797;  308,706;  308,885
263,904;  288,797;  281,966;  285,905
263,995;  326,263;  322,276;  322,325
264,085;  301,030;  295,855;  294,575
264,175;  302,230;  296,706;  296,385
264,265;  327,697;  321,105;  321,865
264,356;  279,363;  270,466;  274,385
264,446;  318,697;  308,996;  307,575
264,536;  299,030;  294,026;  297,515
264,626;  322,497;  318,486;  320,175
264,716;  305,730;  298,435;  303,275
264,806;  318,530;  308,776;  310,415
264,897;  266,130;  258,135;  258,615
264,987;  312,030;  303,535;  304,475
265,077;  319,397;  287,046;  292,545
265,167;  365,597;  310,216;  311,575
265,257;  336,163;  290,445;  290,535
265,347;  329,863;  294,336;  295,795
265,437;  324,030;  296,176;  300,635
265,527;  317,430;  293,155;  294,765
265,617;  288,363;  279,875;  285,145
265,708;  323,430;  314,216;  314,825
265,798;  313,097;  305,415;  307,055
265,888;  307,230;  300,716;  305,545
265,978;  293,997;  294,496;  295,825
266,068;  322,730;  310,155;  315,855
266,158;  298,530;  294,005;  297,205
266,248;  281,263;  274,016;  276,865
266,338;  314,563;  313,035;  314,815
266,428;  302,497;  300,635;  302,655
266,518;  318,297;  311,405;  315,615
266,608;  306,297;  299,725;  294,215
266,698;  275,263;  273,586;  276,245
266,788;  279,063;  274,456;  277,745
266,878;  332,730;  325,776;  330,865
266,968;  314,663;  306,725;  309,425
267,058;  304,163;  297,375;  302,895
267,147;  306,030;  301,845;  302,905
267,237;  304,297;  291,815;  295,765
267,327;  292,497;  286,755;  287,895
267,417;  308,663;  301,225;  303,385
267,507;  300,897;  292,176;  294,215
267,597;  287,463;  282,026;  283,655
267,687;  291,497;  285,165;  287,755
267,777;  291,030;  283,986;  284,615
267,867;  319,830;  312,125;  312,585
267,956;  308,797;  302,466;  304,005
268,046;  307,597;  305,466;  310,865
268,136;  313,397;  296,875;  298,905
268,226;  283,563;  274,885;  274,965
268,316;  284,930;  280,766;  280,845
268,406;  295,463;  289,516;  287,595
268,495;  294,530;  284,415;  287,935
268,585;  318,097;  306,716;  309,605
268,675;  285,463;  284,336;  285,535
268,765;  303,063;  296,355;  300,115
268,854;  294,930;  285,935;  286,715
268,944;  296,563;  291,646;  293,805
269,034;  288,863;  283,986;  289,715
269,124;  295,863;  287,216;  290,705
269,213;  289,130;  286,336;  285,525
269,303;  291,030;  290,466;  288,585
269,393;  306,197;  299,845;  298,345
269,483;  308,097;  300,966;  302,735
269,572;  289,397;  282,875;  284,665
269,662;  290,930;  276,105;  283,315
269,752;  318,430;  312,736;  315,705
269,841;  276,797;  266,046;  269,455
269,931;  288,730;  281,586;  283,075
270,021;  310,263;  300,766;  304,675
270,110;  290,130;  285,695;  288,925
270,200;  302,597;  291,665;  299,445
270,289;  283,963;  280,785;  281,105
270,379;  312,430;  301,466;  302,775
270,469;  296,263;  290,556;  289,955
270,558;  305,730;  303,655;  302,185
270,648;  289,430;  282,785;  284,885
270,737;  294,630;  288,526;  291,525
270,827;  315,797;  310,185;  313,455
270,916;  292,330;  286,935;  289,915
271,006;  302,297;  293,475;  292,885
271,096;  323,497;  317,005;  317,215
271,185;  290,730;  289,896;  289,145
271,275;  309,063;  300,706;  303,575
271,364;  283,563;  281,535;  285,725
271,454;  319,863;  308,255;  315,275
271,543;  299,463;  296,935;  297,745
271,633;  299,163;  293,926;  292,835
271,722;  299,897;  292,255;  296,455
271,812;  296,763;  286,296;  289,275
271,901;  298,297;  292,326;  293,765
271,990;  296,197;  291,836;  290,915
272,080;  288,363;  290,635;  294,915
272,169;  304,430;  301,905;  302,555
272,259;  300,797;  293,225;  292,695
272,348;  312,197;  305,796;  308,535
272,438;  303,097;  296,935;  293,635
272,527;  310,130;  303,996;  304,365
272,616;  311,297;  301,866;  305,295
272,706;  330,463;  320,935;  323,195
272,795;  316,163;  314,076;  315,755
272,884;  300,397;  297,076;  299,515
272,974;  323,497;  317,975;  319,965
273,063;  342,197;  338,206;  337,765
273,152;  310,830;  310,306;  307,735
273,242;  333,330;  320,276;  324,915
273,331;  329,230;  319,315;  322,835
273,420;  316,963;  301,105;  310,255
273,510;  318,563;  307,355;  308,155
273,599;  311,497;  303,255;  306,195
273,688;  309,463;  302,605;  301,885
273,778;  286,863;  285,065;  287,095
273,867;  326,363;  320,266;  317,015
273,956;  310,863;  303,725;  303,805
274,045;  280,430;  273,966;  275,965
274,135;  317,097;  303,905;  305,375
274,224;  301,097;  286,516;  290,045
274,313;  314,463;  305,586;  307,745
274,402;  283,963;  284,796;  287,085
274,491;  318,497;  310,975;  312,995
274,581;  307,330;  301,415;  302,765
274,670;  301,863;  293,146;  294,385
274,759;  307,063;  299,405;  300,435
274,848;  287,997;  276,655;  279,925
274,937;  294,263;  289,945;  287,635
275,026;  296,263;  285,616;  287,835
275,116;  328,397;  316,415;  315,805
275,205;  299,863;  266,926;  271,135
275,294;  335,130;  302,315;  304,335
275,383;  305,097;  299,905;  297,985
275,472;  295,263;  290,005;  290,825
275,561;  300,430;  290,505;  290,285
275,650;  313,997;  306,046;  306,435
275,739;  300,397;  294,776;  297,985
275,828;  292,363;  274,635;  277,965
275,917;  318,763;  312,065;  306,825
276,006;  305,530;  295,426;  296,835
276,095;  303,630;  294,526;  298,665
276,184;  313,063;  309,556;  307,945
276,273;  310,530;  303,105;  304,505
276,362;  282,830;  275,896;  278,535
276,451;  297,363;  291,306;  291,915
276,540;  301,297;  295,896;  296,105
276,629;  297,597;  292,576;  293,225
276,718;  277,997;  270,695;  274,545
276,807;  274,430;  271,625;  274,825
276,896;  295,030;  280,526;  284,495
276,985;  284,830;  283,616;  289,365
277,074;  307,897;  299,105;  300,525
277,163;  300,630;  294,746;  299,085
277,252;  282,630;  279,646;  276,465
277,341;  291,530;  281,236;  289,265
277,430;  286,897;  276,845;  279,355
277,519;  307,597;  298,956;  301,695
277,608;  270,463;  266,546;  267,775
277,696;  276,363;  266,975;  269,445
277,785;  292,230;  284,095;  283,485
277,874;  304,663;  299,605;  296,795
277,963;  291,697;  288,155;  289,995
278,052;  275,963;  264,776;  265,525
278,141;  295,730;  288,415;  290,745
278,229;  293,230;  290,146;  291,935
278,318;  274,030;  268,236;  271,495
278,407;  297,130;  285,576;  285,935
278,496;  296,863;  289,915;  291,965
278,585;  308,997;  300,486;  302,275
278,673;  271,330;  263,836;  266,715
278,762;  270,497;  266,176;  270,485
278,851;  299,197;  285,496;  286,035
278,940;  306,797;  303,685;  303,305
279,028;  303,630;  296,306;  299,585
279,117;  295,897;  282,725;  286,655
279,206;  288,430;  279,475;  284,105
279,294;  294,397;  284,396;  286,665
279,383;  297,897;  286,646;  287,335
279,472;  308,930;  298,095;  298,295
279,561;  293,563;  283,355;  284,975
279,649;  321,363;  308,535;  308,935
279,738;  261,797;  255,566;  255,215
279,827;  310,363;  306,785;  308,805
279,915;  278,963;  275,285;  276,335
280,004;  293,897;  286,565;  288,905
280,092;  314,163;  305,236;  306,635
280,181;  291,430;  280,516;  282,605
280,270;  306,697;  277,866;  281,595
280,358;  312,830;  291,366;  288,915
280,447;  274,263;  261,415;  264,455
280,535;  282,130;  276,016;  275,945
280,624;  282,630;  274,185;  276,805
280,713;  288,063;  277,146;  283,385
280,801;  302,297;  293,116;  293,805
280,890;  299,497;  289,716;  295,475
280,978;  291,763;  280,755;  281,945
281,067;  254,263;  250,676;  255,865
281,155;  290,397;  274,855;  275,705
281,244;  322,530;  313,595;  316,445
281,332;  300,363;  290,845;  293,825
281,421;  279,397;  271,605;  273,675
281,509;  297,330;  284,646;  282,415
281,598;  267,763;  262,435;  263,765
281,686;  294,497;  290,776;  288,945
281,775;  293,430;  285,516;  290,815
281,863;  281,430;  278,016;  279,225
281,951;  283,797;  267,665;  270,735
282,040;  308,697;  300,315;  301,115
282,128;  304,630;  288,375;  294,235
282,217;  278,030;  265,926;  266,075
282,305;  308,763;  294,796;  294,045
282,393;  295,530;  286,505;  284,595
282,482;  287,330;  279,535;  283,255
282,570;  285,430;  266,945;  270,215
282,658;  292,497;  276,116;  277,715
282,747;  279,730;  265,026;  267,905
282,835;  320,763;  306,076;  309,035
282,923;  279,997;  264,655;  267,805
283,012;  296,530;  291,366;  296,345
283,100;  277,397;  269,185;  274,675
283,188;  268,063;  261,125;  262,525
283,277;  291,397;  284,336;  284,745
283,365;  279,030;  271,676;  278,375
283,453;  277,897;  264,755;  270,455
283,542;  295,563;  290,896;  293,765
283,630;  283,597;  276,195;  278,595
283,718;  275,863;  271,195;  274,365
283,806;  245,963;  241,706;  247,485
283,894;  280,330;  274,336;  274,395
283,983;  291,030;  282,165;  282,605
284,071;  299,230;  285,285;  291,495
284,159;  319,397;  309,125;  314,805
284,247;  302,297;  287,466;  288,555
284,335;  293,397;  286,935;  287,485
284,424;  291,730;  283,915;  288,465
284,512;  292,897;  283,475;  286,175
284,600;  287,063;  279,415;  280,145
284,688;  319,430;  312,815;  317,115
284,776;  290,363;  286,815;  287,745
284,864;  314,263;  302,125;  308,655
284,952;  299,763;  289,625;  289,025
285,041;  304,730;  298,255;  298,145
285,129;  301,830;  299,435;  302,445
285,217;  306,897;  300,056;  303,885
285,305;  326,063;  318,676;  319,885
285,393;  282,130;  275,776;  278,695
285,481;  304,397;  296,665;  298,405
285,569;  292,530;  282,966;  285,145
285,657;  302,263;  295,165;  296,255
285,745;  295,230;  292,655;  293,125
285,833;  298,697;  289,505;  293,165
285,921;  305,863;  298,116;  300,945
286,009;  302,697;  301,105;  303,655
286,097;  308,763;  298,236;  301,315
286,185;  294,830;  284,405;  284,795
286,273;  289,463;  283,415;  284,655
286,361;  315,430;  307,915;  311,825
286,449;  298,963;  296,195;  294,565
286,537;  307,030;  304,105;  302,085
286,625;  300,063;  291,185;  293,415
286,713;  284,830;  275,806;  280,315
286,801;  314,963;  312,076;  307,795
286,889;  321,963;  319,435;  320,055
286,976;  304,663;  287,905;  291,205
287,064;  312,930;  307,635;  311,875
287,152;  311,430;  303,576;  305,585
287,240;  315,697;  309,185;  308,845
287,328;  287,797;  287,685;  281,755
287,416;  298,597;  290,975;  292,385
287,504;  298,030;  294,435;  298,285
287,591;  304,497;  298,176;  300,225
287,679;  288,597;  286,095;  286,145
287,767;  301,463;  298,206;  296,985
287,855;  311,897;  303,736;  307,515
287,943;  315,163;  306,716;  309,435
288,030;  302,430;  293,456;  291,795
288,118;  321,863;  318,255;  318,995
288,206;  284,730;  274,956;  275,705
288,294;  307,230;  301,986;  304,135
288,382;  307,363;  300,776;  303,615
288,469;  314,663;  304,396;  308,895
288,557;  298,930;  294,095;  292,615
288,645;  330,163;  323,396;  323,315
288,732;  282,697;  278,915;  279,235
288,820;  309,330;  304,576;  306,785
288,908;  310,330;  304,826;  303,915
288,995;  319,863;  310,945;  310,305
289,083;  299,030;  293,026;  292,935
289,171;  331,730;  320,165;  325,565
289,258;  371,163;  322,176;  324,305
289,346;  435,663;  326,266;  329,365
289,434;  319,097;  303,435;  306,185
289,521;  295,463;  280,415;  286,295
289,609;  327,630;  320,426;  325,405
289,697;  315,397;  312,336;  315,125
289,784;  305,097;  295,445;  295,775
289,872;  315,197;  306,905;  313,015
289,959;  288,463;  282,375;  283,415
290,047;  308,263;  296,546;  300,865
290,134;  274,797;  272,665;  273,815
290,222;  309,763;  308,915;  308,665
290,310;  310,130;  304,905;  307,145
290,397;  336,230;  328,505;  332,835
290,485;  298,463;  290,815;  293,005
290,572;  315,697;  313,225;  314,645
290,660;  308,997;  306,385;  306,205
290,747;  295,097;  295,165;  292,775
290,835;  303,063;  299,016;  302,505
290,922;  307,663;  304,016;  305,515
291,009;  305,863;  297,676;  301,715
291,097;  304,363;  297,926;  300,755
291,184;  334,463;  332,716;  338,585
291,272;  286,930;  282,966;  288,375
291,359;  291,330;  283,915;  289,305
291,447;  313,463;  303,086;  304,735
291,534;  329,930;  327,326;  323,005
291,621;  306,463;  302,845;  301,105
291,709;  284,597;  285,716;  283,705
291,796;  322,530;  320,146;  316,555
291,884;  297,297;  291,466;  296,115
291,971;  325,930;  315,065;  320,295
292,058;  296,497;  288,725;  288,985
292,146;  295,663;  293,746;  297,955
292,233;  292,230;  285,426;  284,765
292,320;  297,930;  294,306;  297,685
292,408;  314,263;  309,086;  308,565
292,495;  305,997;  290,565;  293,085
292,582;  296,930;  286,845;  287,375
292,669;  287,663;  281,415;  286,055
292,757;  283,863;  282,176;  283,865
292,844;  318,830;  312,935;  313,175
292,931;  280,463;  275,176;  277,485
293,018;  298,730;  291,516;  289,915
293,106;  301,097;  299,966;  303,035
293,193;  272,630;  272,415;  274,385
293,280;  306,663;  297,255;  303,635
293,367;  298,163;  296,956;  295,215
293,455;  302,563;  293,185;  294,155
293,542;  284,297;  275,695;  281,445
293,629;  284,163;  279,035;  281,855
293,716;  316,697;  305,646;  311,195
293,803;  291,530;  287,105;  287,695
293,890;  310,963;  310,336;  312,555
293,978;  297,130;  284,105;  290,755
294,065;  294,797;  286,725;  284,345
294,152;  310,930;  302,385;  304,355
294,239;  278,997;  275,646;  274,625
294,326;  291,897;  286,746;  290,635
294,413;  287,330;  278,046;  278,465
294,500;  303,897;  292,586;  295,255
294,587;  291,497;  283,915;  287,195
294,674;  309,963;  305,875;  306,925
294,761;  293,797;  288,896;  287,945
294,848;  300,030;  286,866;  294,115
294,935;  292,830;  290,746;  290,555
295,022;  282,630;  272,396;  274,105
295,109;  266,397;  258,466;  262,665
295,196;  298,697;  291,405;  295,265
295,283;  286,097;  281,176;  278,745
295,370;  311,763;  308,975;  312,155
295,457;  293,797;  289,986;  290,435
295,544;  285,497;  285,105;  287,985
295,631;  297,363;  290,165;  295,805
295,718;  274,863;  272,676;  274,015
295,805;  299,097;  296,225;  296,685
295,892;  302,863;  300,005;  304,445
295,979;  296,697;  291,266;  292,755
296,066;  304,730;  293,996;  296,145
296,153;  308,363;  296,026;  296,355
296,240;  306,263;  299,206;  300,535
296,327;  301,363;  285,206;  285,615
296,413;  325,130;  301,285;  305,075
296,500;  339,163;  302,755;  305,145
296,587;  519,130;  288,616;  286,065
296,674; 1619,863;  294,396;  297,335
296,761;  818,897;  300,095;  298,245
296,848;  306,297;  281,956;  285,815
296,934;  304,330;  290,966;  295,265
297,021;  298,530;  292,565;  292,975
297,108;  285,297;  276,366;  280,895
297,195;  296,630;  291,466;  294,705
297,282;  296,730;  286,535;  286,195
297,368;  313,530;  310,026;  305,975
297,455;  283,030;  279,155;  283,145
297,542;  318,497;  311,375;  313,235
297,629;  301,830;  299,016;  300,205
297,715;  307,897;  308,285;  310,385
297,802;  308,463;  300,466;  303,285
297,889;  316,063;  311,716;  313,025
297,975;  331,397;  322,836;  323,685
298,062;  318,597;  310,505;  312,995
298,149;  280,397;  273,505;  274,905
298,235;  297,063;  291,135;  294,075
298,322;  288,730;  294,806;  292,785
298,409;  320,330;  311,195;  312,715
298,495;  286,797;  285,435;  283,435
298,582;  315,363;  307,516;  308,065
298,669;  289,897;  290,526;  294,245
298,755;  298,863;  299,065;  302,235
298,842;  308,763;  304,755;  309,095
298,928;  305,330;  303,855;  304,595
299,015;  298,097;  294,896;  296,705
299,102;  325,330;  318,986;  320,565
299,188;  320,097;  315,956;  316,045
299,275;  319,997;  309,926;  309,365
299,361;  287,630;  278,875;  281,665
299,448;  316,397;  312,466;  310,885
299,534;  317,730;  312,355;  312,735
299,621;  312,297;  304,655;  303,865
299,707;  305,063;  299,016;  304,675
299,794;  325,397;  319,885;  319,685
299,880;  321,930;  317,076;  318,325
299,967;  298,563;  296,345;  296,295
300,053;  299,763;  295,935;  299,065
300,140;  330,830;  323,086;  328,875
300,226;  317,030;  313,885;  313,595
300,312;  312,363;  307,276;  306,695
300,399;  313,963;  305,505;  308,465
300,485;  302,397;  297,776;  301,725
300,572;  281,730;  281,655;  281,655
300,658;  302,830;  297,216;  294,585
300,744;  315,830;  310,706;  311,315
300,831;  320,663;  313,595;  318,275
300,917;  322,130;  321,676;  320,915
301,004;  317,530;  311,556;  311,015
301,090;  282,730;  277,785;  280,095
301,176;  289,597;  284,255;  288,205
301,263;  321,130;  313,676;  314,925
301,349;  293,597;  289,475;  293,305
301,435;  288,697;  284,276;  285,095
301,521;  320,763;  314,625;  313,245
301,608;  319,363;  314,695;  315,515
301,694;  309,030;  297,896;  300,535
301,780;  308,730;  303,046;  298,285
301,867;  290,597;  280,836;  285,265
301,953;  308,463;  296,595;  301,165
302,039;  383,063;  295,116;  297,515
302,125;  540,630;  298,445;  304,125
302,211;  367,830;  332,926;  334,115
302,298;  359,830;  301,926;  305,295
302,384;  302,197;  281,116;  287,095
302,470;  297,663;  289,505;  291,305
302,556;  309,830;  301,935;  305,645
302,642;  297,663;  293,456;  295,155
302,729;  302,097;  289,306;  293,525
302,815;  319,930;  317,966;  319,775
302,901;  305,663;  296,475;  298,745
302,987;  318,363;  307,716;  308,245
303,073;  303,497;  304,185;  302,795
303,159;  300,363;  296,945;  298,695
303,245;  293,963;  284,336;  290,495
303,331;  284,397;  283,486;  286,455
303,417;  304,197;  294,556;  296,145
303,503;  320,597;  310,046;  312,155
303,590;  295,097;  289,146;  291,705
303,676;  302,730;  299,505;  300,385
303,762;  295,330;  287,185;  287,835
303,848;  318,197;  311,026;  312,055
303,934;  311,763;  304,915;  307,775
304,020;  299,730;  301,796;  304,745
304,106;  316,330;  309,975;  314,015
304,192;  298,663;  291,796;  296,765
304,278;  312,063;  302,896;  304,455
304,364;  328,197;  323,026;  324,755
304,450;  303,563;  301,496;  304,095
304,535;  308,497;  304,005;  304,245
304,621;  310,597;  301,565;  302,205
304,707;  312,197;  306,296;  307,635
304,793;  322,897;  318,625;  318,575
304,879;  313,230;  306,776;  310,585
304,965;  318,663;  312,845;  313,365
305,051;  314,530;  308,616;  311,355
305,137;  322,030;  318,146;  324,235
305,223;  293,063;  291,445;  293,725
305,309;  317,930;  313,496;  317,755
305,394;  319,797;  311,996;  311,465
305,480;  307,197;  299,426;  304,775
305,566;  305,363;  309,355;  310,525
305,652;  318,697;  313,605;  317,885
305,738;  355,930;  349,206;  353,435
305,824;  316,663;  316,016;  315,095
305,909;  327,630;  323,815;  325,155
305,995;  292,363;  289,595;  290,025
306,081;  348,263;  348,345;  350,435
306,167;  317,630;  303,966;  307,875
306,252;  326,363;  324,375;  325,505
306,338;  334,530;  331,366;  335,515
306,424;  310,797;  306,595;  307,415
306,510;  318,630;  316,105;  319,795
306,595;  325,997;  323,685;  322,125
306,681;  316,230;  316,926;  318,895
306,767;  311,130;  305,336;  309,425
306,852;  338,430;  328,255;  331,375
306,938;  325,930;  325,796;  325,905
307,024;  307,830;  302,875;  304,755
307,109;  339,963;  336,065;  338,965
307,195;  329,097;  316,326;  318,385
307,281;  320,530;  318,716;  318,575
307,366;  320,163;  313,345;  310,455
307,452;  322,463;  312,426;  316,335
307,537;  300,930;  296,776;  298,485
307,623;  295,563;  292,105;  296,985
307,709;  313,930;  309,885;  310,795
307,794;  289,697;  288,576;  291,835
307,880;  327,730;  320,236;  319,735
307,965;  313,630;  307,456;  307,525
308,051;  300,763;  297,195;  298,065
308,136;  298,230;  297,165;  296,745
308,222;  306,497;  300,366;  302,045
308,307;  301,330;  295,116;  296,645
308,393;  304,630;  295,535;  300,335
308,478;  318,163;  321,826;  318,975
308,564;  295,863;  295,516;  288,925
308,649;  314,663;  308,496;  308,295
308,735;  308,263;  294,155;  300,535
308,820;  321,663;  320,655;  319,455
308,906;  302,463;  291,625;  300,515
308,991;  341,030;  341,076;  338,375
309,076;  322,863;  319,336;  320,645
309,162;  286,063;  283,945;  283,805
309,247;  309,697;  309,945;  308,415
309,333;  299,530;  291,646;  297,855
309,418;  307,030;  298,665;  301,955
309,503;  306,497;  297,646;  300,235
309,589;  306,297;  303,725;  305,345
309,674;  292,330;  290,945;  289,235
309,759;  307,197;  303,315;  304,195
309,845;  313,663;  311,016;  312,415
309,930;  307,697;  305,966;  307,375
310,015;  280,997;  276,095;  276,835
310,101;  320,630;  315,616;  319,905
310,186;  288,597;  285,426;  288,565
310,271;  303,497;  297,296;  298,295
310,357;  300,830;  297,526;  296,455
310,442;  309,097;  302,445;  303,865
310,527;  305,330;  297,766;  301,125
310,612;  282,997;  278,195;  281,425
310,698;  323,697;  319,725;  321,135
310,783;  310,297;  301,176;  302,685
310,868;  305,330;  294,285;  295,125
310,953;  286,830;  284,165;  285,195
311,038;  310,963;  311,146;  310,075
311,124;  297,097;  294,635;  290,925
311,209;  283,230;  276,736;  277,355
311,294;  319,597;  310,206;  312,575
311,379;  281,030;  276,785;  277,345
311,464;  302,997;  297,405;  297,635
311,549;  297,930;  282,385;  284,505
311,634;  296,397;  290,396;  286,805
311,719;  325,663;  316,016;  315,415
311,805;  299,197;  289,266;  291,605
311,890;  305,297;  295,165;  295,925
311,975;  302,330;  281,526;  286,055
312,060;  317,063;  298,146;  302,435
312,145;  292,930;  277,586;  276,025
312,230;  320,697;  290,815;  296,495
312,315;  337,463;  294,065;  296,045
312,400;  404,863;  296,396;  299,795
312,485; 1545,530;  290,535;  292,475
312,570; 1274,563;  277,125;  279,615
312,655;  347,263;  308,176;  313,325
312,740;  333,763;  301,616;  302,005
312,825;  342,430;  304,105;  307,725
312,910;  356,963;  307,736;  309,235
312,995;  437,263;  296,236;  298,245
313,080; 1920,230;  285,655;  286,805
313,165; 2198,463;  303,565;  305,305
313,250;  376,230;  287,276;  287,825
313,335;  326,730;  307,435;  312,125
313,419;  282,830;  267,466;  268,635
313,504;  325,530;  313,355;  315,225
313,589;  308,230;  295,216;  297,545
313,674;  324,430;  307,206;  310,085
313,759;  290,063;  281,556;  282,625
313,844;  299,697;  292,776;  291,005
313,929;  302,697;  289,945;  291,695
314,014;  328,063;  313,306;  315,005
314,098;  304,530;  299,035;  300,425
314,183;  275,563;  263,505;  263,795
314,268;  300,897;  296,496;  298,955
314,353;  309,997;  302,026;  306,185
314,438;  313,330;  306,905;  311,515
314,522;  314,563;  309,486;  308,535
314,607;  308,663;  307,565;  307,855
314,692;  303,230;  301,885;  303,855
314,777;  299,597;  291,766;  292,395
314,861;  282,263;  277,285;  276,385
314,946;  322,430;  315,116;  317,565
315,031;  299,730;  291,875;  294,115
315,115;  314,063;  306,206;  308,065
315,200;  321,997;  312,146;  313,065
315,285;  294,797;  289,486;  289,595
315,369;  289,997;  287,945;  288,545
315,454;  318,997;  311,905;  311,025
315,539;  315,897;  310,246;  307,795
315,623;  313,963;  309,426;  313,225
315,708;  338,163;  335,605;  336,825
315,793;  301,697;  297,986;  298,155
315,877;  310,497;  302,975;  305,445
315,962;  293,463;  289,105;  291,925
316,046;  325,363;  317,065;  319,225
316,131;  338,530;  334,516;  337,215
316,216;  311,297;  310,315;  310,785
316,300;  308,130;  303,345;  302,165
316,385;  331,230;  325,315;  324,305
316,469;  334,697;  330,625;  331,955
316,554;  303,863;  296,005;  298,425
316,638;  299,330;  296,725;  301,565
316,723;  297,563;  292,546;  293,795
316,807;  303,897;  299,595;  299,275
316,892;  295,563;  288,975;  289,925
316,976;  315,163;  314,405;  316,505
317,061;  308,930;  306,035;  305,965
317,145;  327,963;  327,655;  325,965
317,230;  322,697;  321,505;  319,905
317,314;  279,963;  275,565;  275,085
317,398;  313,063;  310,706;  312,245
317,483;  293,063;  290,026;  291,085
317,567;  315,997;  315,326;  317,865
317,652;  293,030;  283,526;  286,625
317,736;  310,630;  308,776;  309,285
317,820;  334,663;  329,005;  334,665
317,905;  305,363;  306,706;  307,035
317,989;  298,863;  298,285;  300,875
318,073;  298,997;  298,076;  297,705
318,158;  291,663;  284,966;  285,565
318,242;  308,930;  296,845;  299,095
318,326;  294,297;  283,155;  284,015
318,411;  294,897;  295,125;  296,565
318,495;  290,530;  285,776;  287,165
318,579;  289,830;  288,746;  289,305
318,664;  286,863;  280,315;  284,255
318,748;  306,597;  305,996;  310,145
318,832;  293,563;  290,806;  289,475
318,916;  277,463;  274,785;  277,335
319,001;  300,830;  299,945;  301,485
319,085;  293,763;  292,885;  290,905
319,169;  298,997;  293,396;  294,485
319,253;  290,263;  287,216;  285,525
319,337;  308,730;  306,246;  304,885
319,422;  314,397;  316,125;  313,225
319,506;  287,597;  283,326;  285,905
319,590;  311,530;  303,915;  305,525
319,674;  297,163;  291,926;  295,405
319,758;  301,563;  295,165;  300,215
319,842;  309,397;  306,135;  309,155
319,926;  300,030;  294,815;  295,205
320,010;  270,530;  267,046;  269,575
320,095;  285,230;  280,926;  284,685
320,179;  281,130;  279,125;  281,175
320,263;  284,397;  277,385;  285,805
320,347;  278,963;  271,296;  279,075
320,431;  275,630;  273,435;  274,355
320,515;  304,397;  296,375;  299,935
320,599;  275,097;  269,866;  273,825
320,683;  316,763;  305,706;  305,495
320,767;  264,897;  266,236;  266,205
320,851;  283,863;  281,855;  287,785
320,935;  315,497;  312,565;  318,275
321,019;  303,497;  292,975;  290,075
321,103;  279,930;  278,135;  280,585
321,187;  280,663;  273,165;  273,265
321,271;  294,563;  294,616;  296,825
321,355;  286,297;  281,595;  283,805
321,439;  299,363;  301,216;  301,725
321,523;  283,530;  282,266;  284,705
321,606;  285,730;  287,426;  288,215
321,690;  290,563;  287,026;  288,215
321,774;  300,563;  288,336;  292,205
321,858;  290,663;  292,966;  291,945
321,942;  300,530;  294,276;  298,975
322,026;  284,797;  283,315;  282,695
322,110;  293,297;  293,146;  295,755
322,194;  298,897;  295,355;  301,055
322,277;  293,330;  286,135;  287,285
322,361;  282,630;  278,595;  281,215
322,445;  299,897;  289,315;  291,095
322,529;  302,363;  297,716;  299,645
322,613;  304,197;  297,206;  297,795
322,696;  273,130;  267,695;  272,865
322,780;  287,297;  283,026;  283,485
322,864;  278,297;  272,625;  279,835
322,948;  296,430;  292,326;  295,965
323,031;  282,263;  281,565;  282,215
323,115;  293,630;  284,586;  285,215
323,199;  302,730;  296,565;  299,105
323,282;  311,863;  307,496;  310,065
323,366;  293,463;  287,296;  293,625
323,450;  285,397;  273,496;  275,835
323,533;  319,163;  314,576;  317,415
323,617;  277,730;  268,695;  271,585
323,701;  287,363;  281,105;  283,575
323,784;  301,863;  292,576;  294,205
323,868;  299,663;  297,866;  299,875
323,952;  293,330;  290,966;  294,175
324,035;  313,130;  305,926;  310,825
324,119;  300,830;  295,466;  298,455
324,202;  291,763;  286,836;  292,745
324,286;  292,297;  284,986;  286,605
324,370;  298,863;  293,105;  296,765
324,453;  302,397;  299,616;  301,745
324,537;  299,997;  294,426;  298,035
324,620;  289,097;  286,635;  291,765
324,704;  273,263;  270,445;  276,525
324,787;  296,863;  294,875;  296,265
324,871;  313,397;  310,986;  315,255
324,954;  315,230;  312,246;  315,985
325,038;  310,330;  306,466;  306,985
325,121;  315,430;  308,695;  312,075
325,205;  298,530;  290,396;  293,295
325,288;  287,297;  279,556;  285,675
325,371;  305,130;  298,945;  302,395
325,455;  315,763;  314,026;  312,045
325,538;  291,063;  281,516;  287,185
325,622;  325,330;  320,806;  321,295
325,705;  303,630;  297,716;  298,675
325,788;  320,663;  313,625;  316,645
325,872;  305,563;  300,796;  300,745
325,955;  331,397;  319,845;  325,065
326,039;  309,197;  309,576;  312,795
326,122;  316,063;  310,746;  311,665
326,205;  313,863;  311,806;  310,235
326,289;  321,263;  313,986;  319,245
326,372;  301,930;  294,746;  299,195
326,455;  324,863;  323,095;  324,405
326,538;  316,563;  312,336;  316,545
326,622;  318,097;  318,396;  320,075
326,705;  286,863;  287,315;  287,875
326,788;  327,463;  321,266;  322,405
326,871;  320,497;  315,576;  317,965
326,955;  320,063;  313,836;  315,225
327,038;  306,863;  310,116;  310,855
327,121;  311,997;  301,516;  307,855
327,204;  315,263;  313,216;  314,045
327,288;  335,397;  328,956;  332,375
327,371;  297,997;  288,185;  296,955
327,454;  316,897;  313,065;  313,845
327,537;  301,563;  299,815;  302,435
327,620;  332,430;  322,935;  330,145
327,703;  310,797;  309,076;  310,615
327,786;  313,797;  311,076;  312,115
327,870;  331,697;  323,155;  328,715
327,953;  311,063;  301,155;  305,785
328,036;  296,963;  293,105;  299,035
328,119;  323,030;  317,576;  321,135
328,202;  302,897;  301,885;  305,875
328,285;  330,030;  326,776;  329,015
328,368;  324,130;  320,935;  322,625
328,451;  326,797;  320,635;  322,565
328,534;  306,697;  301,266;  307,075
328,617;  313,063;  305,676;  311,785
328,700;  333,563;  326,505;  326,695
328,783;  326,963;  320,785;  322,875
328,866;  320,097;  314,095;  319,935
328,949;  326,730;  319,966;  326,555
329,032;  305,897;  297,826;  300,605
329,115;  301,763;  290,905;  295,945
329,198;  286,630;  282,956;  283,785
329,281;  300,597;  299,336;  298,465
329,364;  320,863;  316,246;  319,245
329,447;  310,797;  307,176;  309,255
329,530;  338,197;  328,155;  328,175
329,613;  307,063;  300,565;  306,725
329,696;  333,030;  326,806;  330,715
329,778;  318,697;  311,306;  316,915
329,861;  302,797;  295,236;  299,565
329,944;  331,630;  321,685;  327,225
330,027;  310,797;  311,576;  315,115
330,110;  316,563;  307,595;  311,705
330,193;  303,863;  295,306;  299,955
330,275;  320,997;  312,296;  315,835
330,358;  296,497;  291,776;  296,185
330,441;  332,430;  323,586;  325,365
330,524;  312,063;  305,216;  311,095
330,607;  309,630;  304,345;  306,905
330,689;  320,730;  313,105;  314,535
330,772;  313,663;  311,105;  312,425
330,855;  328,297;  325,065;  327,855
330,938;  323,963;  312,315;  321,275
331,020;  319,197;  317,176;  320,535
331,103;  298,930;  293,035;  294,505
331,186;  308,797;  305,146;  307,085
331,268;  294,197;  293,565;  298,695
331,351;  325,097;  313,026;  316,455
331,434;  313,697;  308,385;  312,645
331,516;  322,197;  319,076;  321,185
331,599;  305,597;  297,095;  301,425
331,682;  312,497;  310,736;  310,985
331,764;  296,430;  293,326;  297,915
331,847;  318,330;  313,716;  315,705
331,929;  297,863;  290,026;  293,225
332,012;  316,063;  309,625;  310,055
332,095;  333,030;  323,306;  326,625
332,177;  324,430;  320,806;  324,285
332,260;  327,797;  327,526;  328,035
332,342;  319,830;  309,246;  314,445
332,425;  306,697;  312,516;  311,505
332,507;  312,263;  308,526;  311,575
332,590;  294,630;  287,595;  291,655
332,672;  298,830;  294,885;  298,455
332,755;  311,997;  306,855;  311,605
332,837;  312,963;  310,716;  312,255
332,920;  315,530;  309,076;  315,155
333,002;  333,530;  325,676;  328,895
333,085;  312,897;  313,375;  315,165
333,167;  300,930;  296,875;  298,575
333,249;  300,997;  294,526;  298,145
333,332;  297,297;  293,296;  297,715
333,414;  308,597;  300,035;  304,875
333,497;  306,763;  300,255;  302,305
333,579;  309,263;  300,996;  306,375
333,661;  322,363;  319,706;  320,745
333,744;  302,263;  293,695;  297,125
333,826;  310,530;  305,766;  306,065
333,908;  324,463;  313,896;  316,665
333,991;  310,397;  291,266;  291,545
334,073;  468,430;  312,706;  318,525
334,155;  361,830;  304,086;  305,525
334,238;  333,830;  318,576;  326,145
334,320;  301,163;  297,046;  300,585
334,402;  307,163;  302,996;  304,895
334,485;  303,897;  303,655;  304,015
334,567;  304,297;  299,776;  301,975
334,649;  282,897;  278,426;  282,925
334,731;  316,930;  313,456;  317,305
334,813;  314,230;  315,605;  320,355
334,896;  296,563;  290,185;  294,595
334,978;  310,430;  309,165;  302,585
335,060;  304,763;  304,255;  304,235
335,142;  302,363;  301,665;  302,275
335,224;  313,763;  309,766;  311,745
335,307;  299,997;  297,456;  298,965
335,389;  320,397;  310,385;  317,305
335,471;  306,263;  299,896;  306,115
335,553;  325,663;  319,866;  318,905
335,635;  317,963;  312,836;  315,315
335,717;  304,463;  298,195;  300,145
335,799;  326,430;  322,695;  323,585
335,881;  279,930;  278,385;  282,845
335,963;  292,197;  291,796;  293,005
336,045;  297,530;  295,516;  301,085
336,128;  281,830;  270,945;  275,225
336,210;  289,897;  288,996;  292,295
336,292;  302,697;  297,845;  300,615
336,374;  309,097;  300,956;  306,155
336,456;  297,097;  285,616;  288,495
336,538;  307,063;  303,165;  304,435
336,620;  312,497;  310,576;  312,205
336,702;  295,630;  294,766;  294,235
336,783;  309,930;  302,556;  304,225
336,865;  310,430;  304,176;  305,725
336,947;  311,297;  308,486;  311,205
337,029;  282,630;  281,826;  282,945
337,111;  316,063;  316,266;  316,735
337,193;  284,930;  280,986;  284,795
337,275;  312,730;  310,815;  314,535
337,357;  321,030;  318,815;  324,805
337,439;  312,263;  305,255;  310,655
337,521;  281,230;  277,225;  280,915
337,602;  299,597;  298,435;  301,085
337,684;  326,397;  315,635;  317,455
337,766;  310,030;  312,266;  312,305
337,848;  300,797;  295,086;  301,025
337,930;  305,330;  303,165;  306,525
338,012;  301,663;  298,586;  299,555
338,093;  313,730;  312,396;  315,895
338,175;  322,430;  318,195;  321,575
338,257;  309,963;  306,945;  309,225
338,339;  298,063;  294,086;  300,165
338,420;  309,497;  310,986;  310,895
338,502;  302,897;  298,836;  304,265
338,584;  290,230;  286,736;  289,235
338,666;  311,230;  303,426;  302,365
338,747;  334,630;  330,806;  334,875
338,829;  312,730;  309,176;  309,265
338,911;  298,997;  296,236;  298,915
338,992;  296,463;  295,746;  294,435
339,074;  303,997;  306,155;  307,855
339,156;  304,330;  298,176;  303,395
339,237;  330,497;  325,035;  327,765
339,319;  298,930;  294,935;  300,045
339,400;  313,063;  309,065;  311,225
339,482;  286,497;  278,165;  280,605
339,564;  321,630;  317,026;  316,575
339,645;  306,163;  304,595;  308,105
339,727;  297,097;  290,216;  294,375
339,808;  323,397;  317,685;  322,555
339,890;  307,430;  299,956;  302,415
339,971;  315,730;  307,016;  315,055
340,053;  338,797;  336,746;  335,255
340,134;  299,230;  296,535;  298,415
340,216;  319,897;  315,556;  319,645
340,297;  300,430;  298,396;  301,525
340,379;  320,597;  314,736;  316,975
340,460;  309,563;  306,685;  306,615
340,542;  299,963;  294,535;  297,775
340,623;  313,263;  307,926;  312,435
340,705;  298,063;  297,516;  295,795
340,786;  294,463;  289,685;  291,925
340,868;  304,763;  308,826;  304,055
340,949;  282,297;  285,605;  286,145
341,030;  323,863;  321,435;  328,715
341,112;  288,763;  280,565;  284,075
341,193;  275,897;  270,135;  273,595
341,274;  328,230;  322,176;  320,965
341,356;  323,930;  320,716;  321,795
341,437;  302,463;  301,635;  300,825
341,518;  315,297;  307,176;  314,795
341,600;  324,463;  320,866;  322,465
341,681;  332,763;  328,866;  332,375
341,762;  328,197;  325,206;  323,705
341,844;  295,030;  287,146;  292,185
341,925;  313,697;  308,225;  311,205
342,006;  322,397;  320,426;  323,055
342,087;  297,330;  288,095;  292,095
342,169;  311,797;  307,026;  309,845
342,250;  284,163;  286,935;  285,935
342,331;  299,563;  298,706;  299,075
342,412;  314,830;  307,655;  310,045
342,493;  294,130;  289,415;  293,325
342,575;  325,930;  327,095;  327,355
342,656;  317,930;  318,466;  318,265
342,737;  332,997;  329,836;  330,295
342,818;  306,897;  307,996;  309,015
342,899;  314,297;  314,505;  317,165
342,980;  308,297;  306,695;  310,155
343,061;  306,063;  303,065;  304,715
343,143;  320,597;  319,535;  319,565
343,224;  308,930;  306,706;  305,915
343,305;  304,163;  299,625;  303,115
343,386;  303,497;  297,996;  300,475
343,467;  307,863;  303,155;  305,535
343,548;  310,263;  304,176;  305,935
343,629;  318,063;  316,405;  317,625
343,710;  328,163;  322,766;  321,015
343,791;  323,897;  325,065;  327,935
343,872;  303,263;  298,975;  297,795
343,953;  316,730;  314,826;  316,625
344,034;  321,863;  319,475;  324,485
344,115;  310,930;  304,255;  303,425
344,196;  305,663;  298,935;  302,165
344,277;  299,397;  293,306;  294,615
344,358;  310,063;  304,755;  307,345
344,439;  294,730;  293,975;  294,205
344,520;  297,097;  298,546;  300,975
344,601;  316,597;  314,646;  315,525
344,681;  309,997;  302,426;  303,825
344,762;  287,597;  283,466;  287,625
344,843;  283,063;  275,996;  281,125
344,924;  310,863;  303,635;  306,085
345,005;  294,197;  287,176;  288,725
345,086;  302,797;  307,665;  309,725
345,167;  293,063;  293,986;  295,575
345,247;  331,830;  323,896;  328,905
345,328;  317,197;  315,315;  317,705
345,409;  316,197;  307,056;  309,355
345,490;  315,330;  308,415;  314,245
345,571;  311,797;  304,875;  312,045
345,651;  281,363;  279,456;  279,055
345,732;  311,663;  307,285;  312,275
345,813;  311,797;  311,836;  317,355
345,894;  284,297;  285,785;  287,595
345,974;  313,430;  309,556;  311,845
346,055;  300,297;  296,435;  295,735
346,136;  312,030;  304,405;  306,245
346,216;  329,163;  324,945;  328,565
346,297;  302,997;  306,565;  304,225
346,378;  294,163;  291,996;  294,005
346,458;  316,030;  307,375;  313,405
346,539;  302,663;  302,306;  305,975
346,620;  307,163;  305,815;  306,685
346,700;  287,430;  288,755;  289,765
346,781;  285,830;  284,556;  286,765
346,861;  307,830;  304,336;  307,325
346,942;  303,763;  304,336;  302,715
347,023;  321,397;  317,885;  316,005
347,103;  301,830;  297,396;  302,825
347,184;  296,763;  294,475;  296,785
347,264;  295,063;  294,565;  296,805
347,345;  287,097;  290,526;  295,525
347,425;  289,397;  285,125;  290,565
347,506;  287,163;  283,595;  283,195
347,586;  290,963;  289,725;  292,435
347,667;  305,963;  307,616;  304,445
347,747;  313,397;  311,116;  310,775
347,828;  297,130;  296,486;  296,465
347,908;  305,497;  303,306;  307,175
347,988;  304,830;  298,655;  306,125
348,069;  311,863;  311,056;  311,395
348,149;  306,097;  303,956;  309,065
348,230;  311,563;  309,956;  310,945
348,310;  283,297;  284,185;  285,715
348,390;  283,297;  288,526;  288,625
348,471;  302,430;  303,665;  305,125
348,551;  293,930;  290,695;  293,935
348,632;  287,563;  289,505;  294,065
348,712;  290,097;  292,706;  295,115
348,792;  331,330;  329,836;  329,985
348,873;  285,897;  281,905;  283,045
348,953;  292,297;  289,845;  290,395
349,033;  300,630;  297,466;  299,465
349,113;  288,763;  286,076;  286,905
349,194;  303,463;  301,595;  304,825
349,274;  308,330;  304,796;  307,395
349,354;  306,830;  303,046;  308,435
349,434;  304,663;  300,116;  301,925
349,515;  322,797;  316,486;  322,185
349,595;  301,463;  302,206;  302,035
349,675;  307,630;  305,635;  308,015
349,755;  296,463;  296,746;  297,615
349,835;  308,763;  301,195;  307,695
349,916;  303,497;  298,435;  303,915
349,996;  293,563;  291,105;  291,745
350,076;  316,197;  312,375;  317,645
350,156;  288,897;  284,836;  287,665
350,236;  313,763;  314,116;  311,925
350,316;  295,197;  292,975;  295,765
350,396;  309,697;  305,646;  310,065
350,476;  301,763;  301,826;  304,275
350,556;  295,830;  293,966;  299,935
350,637;  320,763;  321,005;  321,825
350,717;  293,830;  288,445;  291,825
350,797;  301,397;  302,616;  305,905
350,877;  292,963;  289,875;  294,705
350,957;  303,263;  297,635;  300,095
351,037;  299,397;  298,556;  303,455
351,117;  294,963;  296,276;  296,555
351,197;  309,430;  303,366;  306,305
351,277;  309,897;  300,556;  301,575
351,357;  315,463;  308,806;  314,445
351,437;  312,530;  306,105;  307,755
351,516;  318,763;  317,986;  318,355
351,596;  299,263;  292,896;  296,025
351,676;  295,697;  290,405;  294,265
351,756;  329,663;  323,426;  326,135
351,836;  316,330;  313,866;  317,935
351,916;  305,963;  297,905;  298,975
351,996;  305,430;  303,996;  305,265
352,076;  305,163;  303,486;  303,085
352,156;  320,563;  319,556;  320,405
352,235;  307,497;  301,255;  300,955
352,315;  312,797;  312,456;  314,415
352,395;  307,897;  308,206;  309,425
352,475;  322,297;  315,405;  320,955
352,555;  334,863;  330,236;  330,635
352,634;  327,030;  321,956;  326,705
352,714;  305,797;  302,595;  304,055
352,794;  355,363;  354,466;  358,075
352,874;  321,363;  314,685;  317,555
352,953;  342,330;  337,676;  339,095
353,033;  321,463;  319,306;  320,925
353,113;  341,730;  332,135;  336,575
353,193;  327,130;  328,046;  329,935
353,272;  337,697;  333,135;  334,365
353,352;  311,763;  307,035;  311,285
353,432;  348,930;  343,005;  347,495
353,511;  333,663;  326,185;  330,665
353,591;  371,497;  361,616;  362,555
353,671;  330,563;  331,926;  333,015
353,750;  331,663;  332,296;  331,275
353,830;  319,130;  313,646;  317,015
353,909;  341,497;  339,836;  343,655
353,989;  323,830;  317,385;  320,255
354,069;  319,797;  319,456;  319,155
354,148;  338,897;  335,035;  339,585
354,228;  317,097;  315,695;  316,905
354,307;  336,097;  329,405;  332,345
354,387;  325,097;  322,095;  322,965
354,466;  315,930;  311,635;  316,045
354,546;  344,197;  335,135;  337,645
354,625;  324,763;  319,815;  320,355
354,705;  324,830;  324,246;  326,865
354,784;  317,797;  316,445;  318,195
354,864;  323,597;  316,635;  317,385
354,943;  337,897;  333,695;  339,105
355,023;  314,797;  310,996;  312,285
355,102;  364,930;  362,866;  363,435
355,181;  321,830;  315,966;  318,045
355,261;  345,330;  338,056;  342,165
355,340;  305,630;  303,845;  307,115
355,420;  341,797;  340,105;  342,305
355,499;  329,830;  322,975;  325,635
355,578;  318,397;  315,276;  316,885
355,658;  334,497;  332,875;  333,745
355,737;  325,797;  317,576;  319,005
355,816;  330,830;  323,276;  324,605
355,896;  318,297;  316,026;  321,355
355,975;  310,630;  307,355;  310,055
356,054;  313,530;  311,935;  312,455
356,133;  292,830;  290,565;  293,305
356,213;  328,730;  324,845;  324,825
356,292;  312,597;  304,016;  309,325
356,371;  316,363;  314,146;  314,035
356,451;  327,663;  324,755;  327,685
356,530;  355,697;  349,496;  350,795
356,609;  318,530;  311,146;  315,535
356,688;  320,163;  316,475;  316,165
356,767;  313,697;  304,695;  309,855
356,846;  332,630;  327,035;  327,235
356,926;  342,230;  340,016;  343,965
357,005;  325,097;  318,345;  318,565
357,084;  313,130;  304,466;  308,385
357,163;  326,197;  317,706;  317,185
357,242;  325,597;  320,146;  319,515
357,321;  318,263;  314,496;  316,575
357,400;  320,330;  321,236;  318,865
357,479;  321,997;  317,725;  320,795
357,559;  329,863;  321,405;  325,705
357,638;  303,163;  300,616;  298,815
357,717;  318,530;  313,746;  311,555
357,796;  329,597;  329,266;  330,875
357,875;  312,097;  314,466;  313,455
357,954;  315,663;  310,155;  313,855
358,033;  315,297;  323,405;  320,935
358,112;  336,363;  329,966;  328,315
358,191;  315,963;  315,276;  318,965
358,270;  297,463;  295,505;  297,695
358,349;  325,930;  321,625;  323,725
358,428;  330,263;  322,445;  326,125
358,507;  327,563;  321,366;  325,105
358,585;  325,463;  320,355;  325,525
358,664;  334,897;  332,266;  334,505
358,743;  338,430;  323,776;  326,515
358,822;  340,330;  334,475;  338,195
358,901;  306,930;  309,176;  309,505
358,980;  314,130;  310,885;  313,735
359,059;  336,763;  328,616;  332,255
359,138;  337,230;  329,415;  328,565
359,216;  323,430;  322,225;  327,485
359,295;  307,763;  309,475;  309,515
359,374;  335,197;  330,026;  333,455
359,453;  321,163;  316,345;  320,885
359,532;  304,497;  304,526;  308,455
359,610;  324,963;  319,556;  323,285
359,689;  333,763;  331,116;  333,025
359,768;  321,397;  313,706;  315,305
359,847;  306,630;  302,065;  305,385
359,925;  308,063;  304,105;  307,215
360,004;  307,330;  299,565;  302,585
360,083;  319,597;  320,165;  321,795
360,161;  311,330;  305,676;  309,885
360,240;  290,663;  288,725;  291,455
360,319;  318,163;  318,276;  317,225
360,397;  327,397;  324,986;  331,265
360,476;  325,163;  318,296;  324,355
360,555;  355,163;  345,565;  346,835
360,633;  307,730;  304,456;  304,945
360,712;  309,997;  309,056;  311,825
360,790;  339,463;  330,065;  331,185
360,869;  317,197;  310,266;  313,085
360,948;  325,863;  322,466;  322,235
361,026;  303,363;  300,065;  301,245
361,105;  316,130;  306,116;  309,875
361,183;  325,363;  324,725;  326,345
361,262;  306,763;  302,375;  307,465
361,340;  309,130;  305,815;  306,875
361,419;  292,363;  289,896;  290,845
361,497;  345,063;  340,926;  346,955
361,576;  326,763;  317,736;  323,245
361,654;  350,997;  342,736;  343,615
361,733;  301,830;  297,366;  297,305
361,811;  332,530;  329,065;  331,875
361,890;  301,430;  292,595;  293,595
361,968;  319,830;  313,706;  316,715
362,046;  342,263;  335,296;  335,795
362,125;  343,497;  337,435;  340,865
362,203;  319,597;  314,635;  316,745
362,282;  335,497;  328,676;  334,675
362,360;  322,630;  318,315;  323,125
362,438;  326,797;  313,565;  317,495
362,517;  361,863;  357,725;  357,035
362,595;  345,230;  340,956;  345,025
362,673;  341,163;  334,576;  338,035
362,752;  336,530;  326,366;  329,445
362,830;  348,297;  343,155;  338,795
362,908;  329,397;  322,885;  326,315
362,986;  338,097;  333,595;  334,645
363,065;  333,297;  326,405;  330,985
363,143;  366,430;  359,875;  363,525
363,221;  325,597;  313,755;  319,675
363,299;  321,330;  315,845;  315,595
363,378;  335,263;  327,546;  328,495
363,456;  309,397;  304,326;  305,295
363,534;  330,197;  323,996;  327,895
363,612;  337,130;  327,546;  330,285
363,690;  338,963;  337,885;  341,915
363,769;  354,763;  349,336;  354,965
363,847;  339,763;  332,326;  333,935
363,925;  308,263;  303,095;  306,775
364,003;  362,730;  350,866;  351,845
364,081;  345,163;  336,345;  339,765
364,159;  342,563;  331,836;  334,695
364,237;  359,063;  341,276;  343,025
364,315;  331,163;  318,866;  320,765
364,393;  367,930;  350,935;  355,465
364,471;  349,897;  328,185;  329,975
364,549;  351,897;  333,026;  334,495
364,627;  358,063;  323,095;  327,065
364,705;  363,997;  311,135;  310,945
364,783;  436,830;  323,496;  332,235
364,861;  985,330;  331,396;  334,915
364,939; 3532,130;  314,086;  319,855
365,017;  813,730;  306,046;  310,735
365,095;  369,597;  322,116;  324,495
365,173;  380,230;  345,556;  349,605
365,251;  385,963;  341,535;  344,665
365,329;  525,363;  346,466;  345,195
365,407; 1148,530;  318,345;  321,385
365,485;  471,063;  344,826;  348,395
365,563;  369,330;  344,306;  346,815
365,641;  343,330;  331,896;  331,005
365,719;  341,730;  337,095;  336,965
365,796;  347,097;  334,926;  336,075
365,874;  360,130;  347,426;  349,165
365,952;  321,097;  309,516;  312,925
366,030;  359,230;  334,866;  333,525
366,108;  366,130;  326,345;  328,575
366,185;  616,463;  338,396;  343,695
366,263;  867,830;  334,646;  340,035
366,341;  386,430;  334,125;  339,925
366,419;  342,663;  331,535;  331,355
366,496;  351,897;  342,655;  345,225
366,574;  335,297;  325,826;  329,315
366,652;  354,430;  345,296;  349,635
366,730;  373,463;  365,475;  368,065
366,807;  341,963;  330,845;  334,945
366,885;  331,197;  321,135;  327,175
366,963;  335,197;  329,016;  331,635
367,040;  355,730;  345,815;  352,465
367,118;  328,397;  321,875;  325,205
367,196;  350,597;  341,896;  344,715
367,273;  343,063;  335,845;  338,245
367,351;  334,630;  328,155;  331,125
367,428;  362,030;  355,016;  356,915
367,506;  334,863;  329,225;  333,905
367,584;  364,430;  360,216;  363,085
367,661;  348,797;  341,785;  346,585
367,739;  335,963;  328,466;  334,835
367,816;  328,630;  320,345;  324,175
367,894;  341,863;  339,146;  345,755
367,971;  336,763;  329,885;  333,335
368,049;  357,397;  349,586;  353,435
368,126;  322,163;  314,625;  317,265
368,204;  360,097;  351,836;  352,775
368,281;  362,563;  353,225;  355,775
368,359;  356,463;  348,806;  354,965
368,436;  354,397;  342,385;  348,785
368,514;  356,563;  349,646;  351,035
368,591;  350,130;  343,486;  348,405
368,668;  348,230;  347,486;  351,455
368,746;  360,330;  358,556;  362,125
368,823;  351,230;  342,405;  345,515
368,901;  345,763;  339,046;  341,025
368,978;  361,497;  354,975;  361,925
369,055;  344,730;  343,826;  347,145
369,133;  376,330;  367,046;  368,725
369,210;  346,697;  339,206;  342,185
369,287;  373,697;  367,986;  371,205
369,365;  371,930;  368,896;  369,715
369,442;  352,330;  346,826;  351,135
369,519;  313,497;  306,396;  310,475
369,596;  374,163;  369,005;  372,695
369,674;  338,963;  336,526;  336,705
369,751;  368,930;  368,005;  369,405
369,828;  351,663;  350,366;  351,255
369,905;  355,897;  354,796;  358,705
369,983;  337,530;  329,826;  336,485
370,060;  338,463;  335,185;  336,165
370,137;  377,997;  371,595;  373,975
370,214;  340,963;  340,246;  340,845
370,291;  354,830;  347,845;  351,965
370,368;  350,330;  345,426;  349,675
370,446;  339,597;  335,716;  337,375
370,523;  333,130;  331,586;  338,615
370,600;  354,230;  350,706;  356,355
370,677;  354,197;  345,826;  349,525
370,754;  348,863;  341,706;  344,655
370,831;  351,197;  344,885;  347,665
370,908;  371,430;  368,556;  369,945
370,985;  329,930;  326,206;  327,885
371,062;  350,697;  346,635;  347,955
371,139;  365,863;  362,125;  364,815
371,216;  360,097;  357,496;  359,475
371,293;  350,930;  350,576;  350,305
371,370;  333,130;  328,806;  332,395
371,447;  355,397;  354,736;  355,835
371,524;  379,997;  374,685;  378,505
371,601;  380,563;  371,556;  374,285
371,678;  382,497;  374,306;  375,345
371,755;  353,497;  348,526;  348,275
371,832;  375,663;  374,526;  377,175
371,909;  346,463;  342,065;  344,605
371,986;  380,263;  376,505;  379,065
372,063;  351,363;  346,195;  348,745
372,140;  364,197;  354,056;  357,495
372,216;  363,663;  360,225;  360,935
372,293;  348,663;  341,945;  344,805
372,370;  375,097;  370,236;  372,635
372,447;  367,563;  361,646;  361,385
372,524;  355,330;  349,725;  352,115
372,601;  358,463;  353,236;  356,005
372,677;  337,963;  339,586;  339,035
372,754;  350,597;  347,516;  350,955
372,831;  355,997;  354,716;  356,955
372,908;  366,863;  368,496;  364,795
372,984;  353,063;  349,246;  356,035
373,061;  344,097;  342,046;  342,845
373,138;  353,597;  349,986;  354,465
373,215;  347,163;  345,155;  346,585
373,291;  354,597;  347,556;  353,415
373,368;  363,597;  353,516;  357,375
373,445;  351,997;  348,285;  348,395
373,521;  353,997;  349,216;  353,935
373,598;  350,597;  341,766;  343,845
373,675;  337,397;  332,646;  334,115
373,751;  355,930;  345,375;  354,195
373,828;  347,097;  341,076;  346,375
373,904;  393,363;  387,225;  391,935
373,981;  331,930;  332,516;  333,585
374,057;  354,530;  353,306;  355,945
374,134;  331,263;  331,706;  334,435
374,211;  349,830;  348,826;  351,835
374,287;  342,463;  338,565;  339,035
374,364;  368,963;  362,426;  365,335
374,440;  329,497;  319,035;  321,205
374,517;  370,963;  361,625;  366,995
374,593;  328,063;  326,896;  326,865
374,670;  344,963;  340,095;  342,905
374,746;  354,197;  346,915;  349,135
374,823;  365,097;  369,255;  368,775
374,899;  367,463;  366,836;  366,475
374,975;  341,197;  336,035;  341,495
375,052;  325,297;  319,776;  326,175
375,128;  333,530;  325,956;  331,675
375,205;  356,297;  353,665;  355,605
375,281;  336,763;  337,296;  336,395
375,357;  366,697;  361,026;  364,245
375,434;  338,497;  331,986;  338,045
375,510;  359,530;  347,755;  353,175
375,586;  354,730;  347,486;  349,845
375,663;  326,097;  321,926;  323,515
375,739;  364,463;  355,716;  358,675
375,815;  346,597;  346,366;  346,765
375,892;  351,797;  344,516;  348,555
375,968;  343,630;  331,605;  336,855
376,044;  341,663;  335,866;  339,405
376,120;  339,430;  332,535;  339,615
376,197;  351,597;  348,466;  352,185
376,273;  344,863;  340,516;  341,095
376,349;  378,430;  378,366;  379,125
376,425;  369,463;  362,935;  364,425
376,501;  350,130;  344,225;  347,555
376,578;  360,263;  362,885;  363,255
376,654;  380,563;  383,866;  382,945
376,730;  366,030;  360,266;  364,005
376,806;  373,763;  375,185;  376,845
376,882;  378,397;  377,176;  378,355
376,958;  381,563;  376,706;  373,325
377,034;  321,263;  319,695;  317,895
377,111;  375,030;  368,826;  369,285
377,187;  396,397;  390,845;  391,825
377,263;  392,063;  383,885;  384,725
377,339;  349,297;  341,445;  346,375
377,415;  371,097;  366,366;  365,685
377,491;  349,963;  342,885;  347,505
377,567;  363,797;  359,755;  360,685
377,643;  386,530;  380,076;  378,785
377,719;  371,497;  363,706;  367,845
377,795;  352,263;  345,725;  349,165
377,871;  368,797;  367,866;  370,355
377,947;  352,363;  348,236;  351,215
378,023;  354,030;  345,855;  349,075
378,099;  349,363;  349,035;  350,465
378,174;  373,163;  374,176;  374,825
378,250;  369,130;  363,105;  366,955
378,326;  370,797;  366,255;  370,045
378,402;  366,130;  357,685;  360,315
378,478;  365,930;  361,605;  365,295
378,554;  375,797;  370,396;  375,075
378,630;  364,230;  365,225;  365,285
378,706;  359,530;  358,076;  357,335
378,781;  397,197;  390,875;  394,875
378,857;  371,530;  363,185;  366,505
378,933;  367,030;  360,315;  365,855
379,009;  355,697;  351,426;  351,035
379,085;  398,730;  393,826;  391,725
379,160;  384,063;  377,246;  378,485
379,236;  379,597;  374,195;  376,655
379,312;  365,730;  359,915;  361,725
379,387;  356,963;  354,486;  355,105
379,463;  362,230;  359,836;  363,685
379,539;  378,830;  370,475;  373,395
379,615;  361,230;  359,056;  358,495
379,690;  404,330;  395,035;  398,755
379,766;  386,797;  373,276;  379,335
379,842;  392,430;  391,105;  391,375
379,917;  393,263;  380,935;  388,225
379,993;  373,063;  368,366;  373,385
380,068;  363,930;  359,236;  361,755
380,144;  382,430;  381,086;  383,405
380,220;  386,830;  382,086;  386,535
380,295;  358,197;  353,005;  355,035
380,371;  361,097;  359,935;  361,545
380,446;  384,897;  377,165;  381,125
380,522;  350,197;  348,766;  349,425
380,597;  358,863;  360,486;  359,965
380,673;  395,797;  390,456;  394,425
380,748;  366,030;  358,046;  358,445
380,824;  371,730;  367,676;  369,935
380,899;  390,197;  386,216;  388,425
380,975;  367,163;  365,475;  366,905
381,050;  357,797;  352,806;  352,825
381,126;  373,797;  370,526;  373,695
381,201;  406,130;  398,806;  402,495
381,277;  378,430;  373,435;  374,795
381,352;  391,797;  388,105;  390,855
381,427;  381,063;  372,586;  376,025
381,503;  382,897;  378,896;  379,385
381,578;  368,630;  360,605;  365,515
381,653;  376,897;  368,776;  372,375
381,729;  365,130;  361,535;  360,945
381,804;  372,930;  367,475;  368,805
381,879;  383,063;  383,306;  386,055
381,955;  359,830;  354,396;  356,545
382,030;  355,230;  356,556;  357,225
382,105;  375,963;  375,586;  372,555
382,181;  374,230;  367,466;  371,255
382,256;  379,263;  378,116;  374,765
382,331;  373,730;  367,216;  371,745
382,406;  357,330;  353,266;  357,745
382,482;  362,763;  361,315;  357,655
382,557;  367,830;  363,526;  366,745
382,632;  374,830;  370,595;  371,585
382,707;  363,230;  361,135;  365,615
382,782;  371,963;  361,516;  366,275
382,857;  361,463;  358,996;  361,035
382,933;  351,130;  351,776;  352,995
383,008;  345,697;  344,065;  345,165
383,083;  378,230;  376,866;  379,215
383,158;  384,697;  378,866;  381,615
383,233;  364,530;  362,385;  363,105
383,308;  367,863;  359,875;  362,675
383,383;  397,530;  389,445;  391,785
383,458;  368,063;  361,135;  360,475
383,533;  342,997;  342,456;  344,625
383,608;  390,130;  387,885;  390,385
383,683;  390,997;  385,046;  389,585
383,758;  383,997;  380,285;  380,925
383,833;  375,430;  370,296;  371,015
383,908;  347,663;  343,206;  342,165
383,983;  349,130;  346,296;  350,755
384,058;  359,997;  355,246;  357,655
384,133;  368,463;  368,185;  368,575
384,208;  377,397;  376,796;  379,565
384,283;  356,597;  348,736;  351,825
384,358;  389,897;  381,845;  387,485
384,433;  358,830;  357,496;  357,355
384,508;  374,463;  368,966;  373,895
384,583;  380,130;  373,725;  375,265
384,658;  376,297;  367,915;  371,275
384,732;  339,530;  339,456;  339,705
384,807;  372,463;  366,935;  369,005
384,882;  379,530;  371,246;  373,145
384,957;  373,730;  368,095;  371,985
385,032;  377,463;  375,426;  376,555
385,106;  373,163;  370,216;  371,515
385,181;  356,297;  351,385;  357,155
385,256;  372,897;  363,565;  366,745
385,331;  379,430;  371,935;  373,255
385,405;  382,897;  380,975;  381,445
385,480;  371,730;  365,695;  366,715
385,555;  408,297;  399,306;  400,405
385,630;  395,163;  390,956;  395,935
385,704;  375,530;  374,056;  377,105
385,779;  371,297;  364,405;  364,855
385,854;  371,363;  368,746;  369,975
385,928;  370,030;  363,016;  365,315
386,003;  410,463;  402,586;  405,115
386,078;  377,397;  372,466;  374,995
386,152;  402,630;  401,456;  401,815
386,227;  361,797;  357,646;  361,225
386,301;  385,430;  378,725;  380,385
386,376;  356,563;  348,695;  355,015
386,450;  388,830;  378,616;  381,145
386,525;  378,863;  373,556;  377,655
386,600;  393,163;  385,746;  385,925
386,674;  370,830;  364,076;  367,315
386,749;  377,930;  375,095;  381,315
386,823;  385,197;  377,435;  382,095
386,898;  383,397;  379,766;  380,535
386,972;  387,763;  380,966;  385,985
387,047;  375,763;  369,776;  374,355
387,121;  381,863;  379,695;  380,335
387,195;  366,297;  357,875;  359,895
387,270;  391,897;  385,625;  385,415
387,344;  408,697;  404,405;  407,055
387,419;  397,030;  385,665;  393,195
387,493;  377,697;  377,776;  379,825
387,567;  357,797;  355,005;  358,475
387,642;  411,663;  403,586;  405,945
387,716;  372,197;  369,565;  372,245
387,790;  375,030;  367,706;  371,225
387,865;  377,430;  372,806;  373,715
387,939;  404,463;  403,005;  404,415
388,013;  393,363;  384,806;  386,145
388,088;  369,463;  368,655;  370,085
388,162;  373,930;  370,135;  371,835
388,236;  380,963;  372,456;  375,275
388,310;  370,830;  361,966;  364,475
388,385;  396,430;  397,185;  400,845
388,459;  384,263;  379,996;  380,235
388,533;  362,797;  363,676;  362,565
388,607;  363,263;  366,776;  365,955
388,682;  380,997;  374,806;  375,745
388,756;  357,163;  355,035;  360,825
388,830;  394,697;  390,255;  394,075
388,904;  385,297;  378,276;  385,365
388,978;  368,463;  369,535;  370,165
389,052;  379,630;  375,396;  377,225
389,126;  373,697;  370,435;  376,195
389,200;  376,863;  372,665;  377,205
389,275;  372,663;  369,266;  367,695
389,349;  381,263;  374,695;  373,065
389,423;  371,530;  369,565;  369,375
389,497;  387,397;  380,966;  383,775
389,571;  372,297;  368,665;  370,175
389,645;  378,630;  376,806;  379,805
389,719;  371,530;  369,396;  372,955
389,793;  348,763;  346,576;  348,725
389,867;  407,497;  398,035;  402,955
389,941;  379,530;  375,375;  377,215
390,015;  367,263;  361,135;  364,515
390,089;  366,863;  360,426;  362,085
390,163;  373,530;  372,456;  375,935
390,237;  380,930;  375,435;  379,295
390,310;  388,697;  379,276;  382,155
390,384;  381,063;  376,546;  383,625
390,458;  407,530;  400,826;  403,825
390,532;  389,063;  383,496;  386,725
390,606;  373,130;  365,945;  369,265
390,680;  369,697;  366,466;  368,115
390,754;  367,163;  366,385;  368,915
390,827;  392,963;  388,276;  392,645
390,901;  399,597;  391,855;  396,215
390,975;  372,330;  368,905;  370,295
391,049;  367,363;  366,366;  364,315
391,123;  364,563;  362,685;  363,545
391,196;  362,730;  367,635;  367,855
391,270;  381,530;  378,426;  377,835
391,344;  362,830;  360,056;  359,585
391,418;  374,363;  372,975;  372,155
391,491;  361,763;  362,655;  363,995
391,565;  366,297;  362,065;  366,105
391,639;  399,997;  394,345;  397,875
391,712;  387,330;  385,815;  384,375
391,786;  380,430;  382,646;  386,785
391,860;  371,630;  369,385;  370,925
391,933;  379,397;  369,935;  371,115
392,007;  376,830;  371,355;  380,875
392,081;  404,897;  396,456;  399,955
392,154;  383,130;  377,845;  383,895
392,228;  396,230;  391,366;  394,685
392,301;  382,130;  376,266;  381,275
392,375;  391,263;  386,076;  389,995
392,448;  382,930;  379,516;  384,445
392,522;  380,063;  376,236;  379,965
392,595;  375,997;  370,105;  374,245
392,669;  380,697;  376,116;  379,675
392,742;  399,797;  390,975;  396,915
392,816;  398,297;  397,296;  400,205
392,889;  400,463;  392,746;  396,605
392,963;  412,563;  409,095;  409,745
393,036;  390,463;  385,345;  386,785
393,110;  398,997;  391,155;  393,885
393,183;  409,230;  400,836;  405,685
393,257;  422,930;  415,456;  417,745
393,330;  370,930;  365,845;  369,745
393,403;  397,430;  390,486;  395,585
393,477;  356,997;  355,845;  358,875
393,550;  393,363;  390,306;  395,545
393,623;  393,430;  388,396;  388,295
393,697;  409,630;  406,056;  406,835
393,770;  384,630;  376,556;  379,065
393,843;  408,297;  402,996;  406,915
393,917;  394,730;  394,216;  398,485
393,990;  416,297;  409,996;  410,125
394,063;  394,997;  386,855;  392,225
394,136;  394,697;  388,635;  391,675
394,210;  393,830;  393,336;  395,655
394,283;  407,730;  402,785;  407,175
394,356;  404,897;  399,165;  399,175
394,429;  402,197;  396,935;  398,825
394,502;  383,797;  382,016;  383,895
394,576;  422,663;  414,125;  414,715
394,649;  385,530;  378,776;  377,865
394,722;  404,963;  400,896;  403,785
394,795;  411,763;  408,306;  413,185
394,868;  387,697;  384,135;  385,985
394,941;  377,963;  376,435;  375,265
395,014;  422,830;  417,056;  420,205
395,088;  406,630;  398,956;  399,175
395,161;  396,330;  395,466;  398,685
395,234;  418,163;  409,236;  410,735
395,307;  409,397;  402,236;  405,525
395,380;  391,430;  384,736;  385,325
395,453;  440,630;  436,845;  437,285
395,526;  412,930;  408,385;  412,495
395,599;  433,763;  426,926;  430,645
395,672;  399,530;  394,586;  394,895
395,745;  424,663;  417,125;  421,075
395,818;  382,897;  376,306;  378,615
395,891;  397,230;  385,635;  387,695
395,964;  424,430;  415,896;  414,885
396,036;  389,997;  387,486;  384,175
396,109;  398,897;  392,076;  395,785
396,182;  405,063;  396,766;  399,545
396,255;  400,230;  399,225;  398,845
396,328;  409,730;  410,065;  411,075
396,401;  377,530;  370,746;  371,295
396,474;  379,330;  381,086;  381,505
396,547;  403,830;  397,046;  400,645
396,619;  397,497;  390,755;  390,525
396,692;  412,163;  404,866;  411,355
396,765;  374,730;  370,616;  372,985
396,838;  391,497;  388,225;  388,295
396,911;  377,530;  371,266;  373,155
396,983;  398,063;  392,496;  392,385
397,056;  375,430;  372,355;  374,095
397,129;  392,230;  387,796;  389,615
397,201;  392,897;  391,556;  389,605
397,274;  390,797;  385,366;  389,335
397,347;  368,230;  363,345;  363,665
397,420;  387,763;  384,605;  387,195
397,492;  394,930;  388,296;  388,685
397,565;  382,530;  375,915;  379,595
397,637;  372,730;  369,366;  372,085
397,710;  352,163;  351,586;  350,295
397,783;  417,397;  412,855;  414,805
397,855;  351,663;  345,345;  347,055
397,928;  368,063;  368,336;  371,095
398,000;  398,097;  395,866;  396,635
398,073;  389,930;  386,546;  384,745
398,146;  382,530;  376,706;  377,295
398,218;  395,530;  390,255;  393,135
398,291;  394,130;  385,806;  387,915
398,363;  382,197;  381,755;  384,505
398,436;  374,963;  369,855;  374,675
398,508;  385,930;  383,266;  385,345
398,581;  386,030;  378,206;  380,565
398,653;  387,030;  374,255;  373,825
398,726;  386,330;  378,535;  383,385
398,798;  394,263;  383,306;  387,885
398,870;  396,730;  391,116;  396,905
398,943;  373,897;  366,236;  369,775
399,015;  366,963;  365,676;  368,815
399,088;  390,563;  389,655;  388,435
399,160;  370,663;  368,076;  368,815
399,232;  353,730;  350,405;  352,095
399,305;  374,530;  368,435;  372,935
399,377;  377,430;  377,905;  377,535
399,449;  386,830;  386,246;  388,735
399,522;  421,863;  421,875;  424,965
399,594;  367,397;  364,576;  365,315
399,666;  390,297;  382,625;  385,235
399,738;  375,497;  373,336;  375,225
399,811;  382,797;  376,736;  377,025
399,883;  391,030;  386,105;  388,295
399,955;  391,697;  389,855;  389,195
400,027;  353,197;  345,945;  349,545
400,100;  406,363;  407,366;  409,275
400,172;  351,330;  348,296;  349,645
400,244;  382,563;  378,225;  381,195
400,316;  403,097;  393,016;  393,505
400,388;  391,263;  389,385;  393,005
400,460;  368,330;  359,306;  364,605
400,532;  352,930;  350,826;  351,835
400,605;  382,597;  377,736;  384,975
400,677;  408,397;  402,285;  404,675
400,749;  404,197;  395,685;  398,125
400,821;  392,863;  385,956;  388,105
400,893;  384,930;  379,445;  382,305
400,965;  396,063;  386,755;  392,785
401,037;  389,797;  387,565;  392,525
401,109;  375,430;  370,725;  373,835
401,181;  382,730;  380,716;  385,485

