pru
Integration time [ms]:   0,150
Averaging Nr. [scans]: 30
Smoothing Nr. [pixels]: 0
Data measured with spectrometer [name]: 7416147SP
Wave   ;Sample   ;Dark     ;Reference
[nm]   ;[counts] ;[counts] ;[counts] 

230,218;  293,353;  290,315;  293,845
230,311;  325,519;  319,885;  318,565
230,404;  314,652;  309,855;  312,875
230,497;  326,219;  317,385;  315,715
230,591;  336,719;  333,426;  335,355
230,684;  328,953;  326,486;  329,355
230,777;  317,253;  311,736;  314,765
230,870;  313,453;  313,326;  316,955
230,964;  313,619;  310,885;  314,745
231,057;  347,853;  342,496;  343,475
231,150;  334,386;  331,695;  332,715
231,243;  336,552;  330,635;  332,775
231,336;  339,719;  331,375;  331,335
231,430;  321,519;  316,496;  317,715
231,523;  326,819;  324,516;  326,785
231,616;  313,052;  305,445;  309,685
231,709;  343,652;  328,065;  330,025
231,802;  316,419;  300,945;  301,885
231,895;  316,586;  299,836;  300,315
231,988;  333,419;  315,655;  318,535
232,082;  315,519;  298,155;  302,425
232,175;  318,819;  302,155;  306,175
232,268;  316,586;  301,266;  305,345
232,361;  325,719;  304,806;  307,515
232,454;  334,753;  322,396;  323,025
232,547;  340,119;  318,716;  322,655
232,640;  311,586;  296,766;  294,035
232,733;  337,086;  314,116;  323,045
232,826;  307,286;  288,915;  295,035
232,919;  329,853;  313,826;  312,665
233,012;  313,853;  293,646;  292,775
233,105;  313,786;  294,766;  298,815
233,199;  321,386;  299,875;  304,045
233,292;  309,119;  293,475;  296,235
233,385;  278,652;  263,426;  262,225
233,478;  311,453;  293,885;  295,685
233,571;  341,786;  324,586;  327,675
233,664;  319,919;  305,996;  308,435
233,757;  296,119;  280,796;  281,395
233,850;  298,586;  282,255;  285,825
233,943;  305,719;  290,896;  292,195
234,035;  320,152;  300,576;  302,355
234,128;  295,886;  281,836;  283,945
234,221;  310,353;  297,665;  298,245
234,314;  320,286;  304,915;  311,975
234,407;  328,786;  302,935;  309,075
234,500;  300,986;  277,625;  281,875
234,593;  305,853;  287,095;  285,735
234,686;  311,186;  293,746;  293,765
234,779;  305,052;  291,266;  293,165
234,872;  298,353;  281,806;  281,565
234,965;  307,052;  292,806;  290,795
235,058;  287,552;  274,155;  276,215
235,150;  309,086;  285,776;  290,805
235,243;  297,853;  282,736;  284,425
235,336;  324,986;  300,695;  304,545
235,429;  288,853;  273,646;  272,515
235,522;  351,519;  330,996;  335,445
235,615;  277,719;  262,276;  265,145
235,707;  301,586;  282,415;  282,335
235,800;  305,519;  289,815;  290,515
235,893;  307,919;  289,956;  292,955
235,986;  315,919;  298,266;  299,325
236,079;  304,086;  286,586;  291,125
236,171;  285,753;  270,725;  271,865
236,264;  327,286;  312,635;  313,275
236,357;  307,386;  290,986;  293,865
236,450;  326,819;  315,225;  317,215
236,542;  281,753;  267,065;  272,575
236,635;  331,953;  313,546;  316,385
236,728;  302,586;  285,516;  288,115
236,821;  299,052;  280,165;  283,715
236,913;  292,619;  277,896;  276,315
237,006;  285,253;  271,605;  275,435
237,099;  298,086;  283,896;  285,575
237,191;  319,119;  298,796;  300,225
237,284;  283,052;  267,896;  272,995
237,377;  310,619;  294,725;  297,495
237,470;  298,019;  285,415;  287,875
237,562;  296,519;  276,866;  275,785
237,655;  339,919;  320,945;  324,565
237,747;  311,253;  292,695;  295,845
237,840;  331,253;  313,086;  314,435
237,933;  317,253;  300,445;  301,555
238,025;  323,453;  301,415;  301,595
238,118;  299,152;  282,456;  287,755
238,211;  285,152;  268,155;  272,375
238,303;  293,152;  272,296;  273,415
238,396;  278,753;  268,065;  271,945
238,488;  301,652;  292,625;  291,075
238,581;  300,586;  287,855;  289,445
238,673;  305,152;  285,766;  286,865
238,766;  302,019;  282,635;  283,185
238,859;  291,086;  273,586;  276,105
238,951;  295,986;  281,095;  282,835
239,044;  299,186;  276,496;  279,525
239,136;  287,819;  269,035;  271,705
239,229;  299,219;  280,665;  283,435
239,321;  290,319;  271,255;  276,105
239,414;  306,719;  289,875;  292,345
239,506;  302,552;  284,625;  290,655
239,599;  333,719;  316,315;  315,935
239,691;  304,086;  287,945;  287,755
239,784;  320,819;  301,926;  304,175
239,876;  313,453;  295,005;  294,715
239,969;  305,119;  284,426;  288,635
240,061;  289,052;  269,505;  272,655
240,153;  294,619;  276,776;  278,405
240,246;  308,353;  287,635;  287,925
240,338;  332,019;  315,285;  314,405
240,431;  281,052;  268,896;  270,455
240,523;  288,286;  269,315;  270,665
240,615;  313,219;  299,086;  301,495
240,708;  329,453;  309,945;  312,145
240,800;  303,219;  286,956;  289,175
240,893;  288,819;  272,216;  274,965
240,985;  307,886;  286,116;  289,995
241,077;  283,086;  269,866;  271,905
241,170;  322,186;  300,355;  300,805
241,262;  309,619;  293,695;  290,825
241,354;  276,786;  252,305;  253,985
241,447;  301,086;  281,326;  283,905
241,539;  285,652;  266,746;  270,745
241,631;  337,986;  314,366;  317,275
241,724;  282,953;  259,135;  260,655
241,816;  297,319;  279,385;  281,545
241,908;  296,519;  275,056;  280,445
242,000;  292,953;  277,625;  279,505
242,093;  298,753;  277,725;  280,745
242,185;  299,819;  277,736;  277,535
242,277;  293,219;  274,695;  277,115
242,369;  297,152;  282,146;  286,335
242,462;  289,753;  274,405;  274,215
242,554;  296,253;  277,146;  281,105
242,646;  301,319;  283,146;  286,575
242,738;  324,319;  303,255;  307,195
242,830;  277,386;  259,026;  260,415
242,923;  320,652;  297,035;  299,015
243,015;  291,152;  268,655;  266,675
243,107;  285,719;  267,676;  271,255
243,199;  285,552;  276,345;  278,365
243,291;  292,586;  272,125;  276,215
243,383;  270,353;  254,826;  256,465
243,476;  288,886;  269,435;  268,005
243,568;  297,886;  280,915;  284,885
243,660;  298,652;  273,385;  279,575
243,752;  302,919;  279,796;  287,275
243,844;  315,386;  300,766;  302,705
243,936;  304,386;  291,956;  293,555
244,028;  322,253;  304,796;  307,475
244,120;  270,552;  254,346;  255,525
244,212;  307,286;  293,826;  293,755
244,305;  281,453;  268,496;  267,935
244,397;  304,186;  289,165;  291,675
244,489;  325,453;  304,276;  307,925
244,581;  318,219;  299,255;  300,795
244,673;  291,219;  281,806;  283,225
244,765;  299,819;  286,035;  290,565
244,857;  306,519;  284,986;  287,335
244,949;  296,853;  283,956;  284,945
245,041;  262,686;  250,865;  255,005
245,133;  314,319;  293,695;  296,625
245,225;  294,819;  277,915;  280,695
245,317;  301,353;  289,456;  289,025
245,409;  279,686;  263,755;  269,375
245,501;  303,719;  288,496;  293,045
245,593;  298,886;  286,255;  290,055
245,685;  300,353;  285,405;  288,735
245,776;  298,152;  285,945;  287,235
245,868;  286,619;  271,276;  272,565
245,960;  281,253;  265,875;  263,405
246,052;  325,186;  310,766;  310,445
246,144;  310,152;  294,165;  294,205
246,236;  294,953;  283,576;  283,565
246,328;  306,052;  291,345;  293,965
246,420;  295,486;  279,746;  280,855
246,512;  327,086;  308,236;  310,455
246,604;  295,486;  282,526;  286,825
246,695;  283,686;  273,345;  272,135
246,787;  314,486;  293,526;  301,145
246,879;  310,353;  292,716;  297,145
246,971;  313,486;  299,276;  300,965
247,063;  291,719;  273,255;  278,605
247,155;  308,853;  294,516;  297,195
247,246;  298,753;  283,266;  283,715
247,338;  306,719;  288,116;  294,265
247,430;  316,286;  299,945;  303,475
247,522;  319,886;  297,546;  300,555
247,613;  315,119;  296,586;  299,675
247,705;  306,386;  286,896;  288,445
247,797;  328,219;  305,776;  307,475
247,889;  323,986;  294,706;  295,475
247,980;  327,419;  285,676;  291,995
248,072;  337,619;  282,845;  285,895
248,164;  348,652;  293,216;  298,385
248,256;  307,019;  271,366;  274,105
248,347;  330,186;  309,785;  311,065
248,439;  304,853;  283,165;  282,675
248,531;  318,652;  303,885;  304,835
248,622;  325,019;  307,206;  308,325
248,714;  301,052;  276,945;  278,365
248,806;  311,853;  293,655;  298,015
248,897;  310,119;  291,535;  292,985
248,989;  284,253;  263,956;  263,855
249,081;  297,486;  283,355;  284,905
249,172;  316,353;  289,926;  295,135
249,264;  292,786;  272,076;  273,435
249,356;  289,253;  269,326;  273,745
249,447;  306,219;  282,176;  284,525
249,539;  299,253;  283,086;  284,645
249,630;  303,853;  289,875;  288,495
249,722;  331,953;  313,276;  315,395
249,813;  302,319;  280,496;  284,125
249,905;  313,453;  289,426;  293,665
249,997;  304,819;  281,445;  280,615
250,088;  300,052;  282,255;  288,985
250,180;  308,786;  283,695;  284,575
250,271;  299,386;  281,195;  280,335
250,363;  341,886;  319,105;  320,755
250,454;  295,919;  273,035;  275,615
250,546;  306,286;  285,926;  289,415
250,637;  285,286;  264,445;  261,845
250,729;  295,453;  266,505;  269,555
250,820;  312,986;  289,915;  292,965
250,912;  288,819;  262,355;  267,085
251,003;  305,586;  278,396;  280,475
251,095;  309,686;  282,086;  284,555
251,186;  296,353;  271,415;  274,775
251,277;  300,519;  271,986;  275,265
251,369;  311,686;  275,975;  275,105
251,460;  299,919;  271,456;  273,815
251,552;  319,186;  278,475;  279,655
251,643;  305,119;  268,796;  267,375
251,735;  313,986;  265,246;  267,375
251,826;  303,586;  258,016;  263,245
251,917;  329,719;  278,035;  279,115
252,009;  329,319;  273,396;  275,605
252,100;  336,052;  281,426;  283,345
252,191;  348,853;  289,996;  292,015
252,283;  344,219;  265,095;  267,705
252,374;  366,619;  278,296;  278,375
252,465;  395,319;  295,405;  298,605
252,557;  390,953;  283,576;  286,365
252,648;  390,386;  265,146;  268,635
252,739;  423,386;  280,516;  282,125
252,831;  427,419;  270,836;  280,355
252,922;  459,652;  282,296;  280,045
253,013;  498,253;  273,956;  284,285
253,104;  558,153;  270,076;  270,335
253,196;  672,386;  271,366;  271,175
253,287;  817,786;  281,836;  277,135
253,378; 1193,919;  276,276;  277,975
253,469; 3720,086;  272,385;  276,445
253,561;20801,186;  273,496;  278,855
253,652;41304,551;  282,266;  280,015
253,743; 6539,652;  276,216;  280,985
253,834;  617,653;  259,146;  265,875
253,926;  503,319;  262,605;  267,485
254,017;  482,052;  284,236;  290,235
254,108;  450,652;  291,836;  290,565
254,199;  433,386;  285,326;  291,185
254,290;  436,619;  312,725;  313,865
254,381;  413,419;  287,076;  291,155
254,472;  412,986;  291,935;  300,495
254,564;  408,652;  312,766;  307,565
254,655;  391,353;  304,755;  308,105
254,746;  346,519;  264,896;  264,025
254,837;  377,186;  293,105;  298,435
254,928;  363,586;  266,836;  271,975
255,019;  365,052;  283,505;  286,805
255,110;  370,719;  300,165;  301,665
255,201;  354,786;  281,155;  287,655
255,292;  382,786;  312,706;  316,275
255,383;  349,486;  275,785;  275,725
255,474;  340,686;  273,306;  273,095
255,566;  349,253;  283,926;  286,645
255,657;  341,019;  298,556;  302,445
255,748;  319,552;  271,415;  278,125
255,839;  320,853;  280,695;  282,485
255,930;  328,819;  287,866;  289,735
256,021;  335,386;  298,845;  298,115
256,112;  318,052;  278,456;  278,735
256,203;  345,186;  311,866;  313,365
256,294;  327,419;  293,496;  299,575
256,384;  304,886;  270,565;  275,715
256,475;  319,919;  290,996;  294,595
256,566;  305,019;  281,246;  287,825
256,657;  305,453;  278,945;  278,915
256,748;  300,253;  281,285;  284,675
256,839;  294,786;  274,426;  273,555
256,930;  290,819;  279,165;  283,055
257,021;  327,853;  304,155;  306,465
257,112;  322,919;  304,926;  309,235
257,203;  283,853;  258,445;  259,825
257,294;  276,119;  254,465;  262,175
257,385;  305,086;  288,526;  294,205
257,475;  301,619;  279,135;  278,545
257,566;  306,453;  287,586;  292,255
257,657;  288,453;  269,595;  270,025
257,748;  291,186;  275,935;  276,095
257,839;  301,853;  287,915;  286,025
257,930;  308,519;  285,736;  290,395
258,020;  289,152;  269,716;  271,535
258,111;  279,652;  262,225;  263,255
258,202;  302,619;  288,326;  289,935
258,293;  301,619;  284,655;  285,305
258,384;  320,419;  305,595;  307,665
258,474;  305,119;  288,676;  291,995
258,565;  276,853;  271,635;  273,435
258,656;  306,552;  292,966;  295,145
258,747;  285,119;  271,475;  275,425
258,837;  288,819;  274,246;  273,695
258,928;  296,086;  275,785;  278,605
259,019;  284,586;  268,415;  270,595
259,109;  281,186;  269,685;  269,425
259,200;  301,753;  286,105;  289,815
259,291;  283,586;  269,975;  271,655
259,381;  300,753;  293,026;  295,635
259,472;  306,753;  295,796;  296,545
259,563;  316,786;  303,065;  305,845
259,653;  290,019;  278,296;  281,385
259,744;  282,552;  268,826;  267,735
259,835;  315,386;  300,975;  302,815
259,925;  283,919;  271,505;  277,075
260,016;  299,419;  286,746;  287,585
260,107;  269,719;  258,035;  264,715
260,197;  302,086;  283,975;  286,325
260,288;  291,652;  274,565;  279,155
260,378;  282,886;  267,195;  271,275
260,469;  304,353;  285,915;  288,765
260,560;  277,019;  266,146;  269,495
260,650;  283,853;  271,736;  275,665
260,741;  290,386;  276,366;  279,035
260,831;  279,819;  272,855;  275,905
260,922;  275,119;  266,206;  269,545
261,012;  286,386;  277,665;  278,255
261,103;  314,353;  301,785;  302,875
261,193;  314,853;  302,086;  303,915
261,284;  280,453;  271,806;  273,005
261,374;  307,219;  296,385;  303,855
261,465;  301,186;  287,755;  289,435
261,555;  291,319;  282,255;  280,715
261,646;  305,052;  292,475;  294,375
261,736;  294,453;  287,435;  290,535
261,827;  295,186;  283,716;  284,935
261,917;  326,086;  311,736;  311,595
262,007;  294,119;  283,986;  288,075
262,098;  297,586;  289,445;  287,725
262,188;  338,953;  326,655;  333,475
262,279;  302,953;  300,185;  299,795
262,369;  300,152;  286,285;  289,225
262,459;  304,919;  288,246;  290,365
262,550;  312,486;  303,266;  301,565
262,640;  282,886;  273,005;  276,555
262,731;  307,353;  300,935;  299,335
262,821;  320,786;  310,535;  312,255
262,911;  310,253;  297,875;  298,285
263,002;  301,186;  289,625;  290,825
263,092;  311,919;  303,956;  306,295
263,182;  297,986;  284,806;  285,755
263,273;  293,386;  285,426;  289,395
263,363;  306,119;  300,746;  299,385
263,453;  276,986;  267,375;  268,605
263,543;  295,719;  289,815;  289,615
263,634;  277,686;  266,516;  266,365
263,724;  301,052;  292,586;  293,065
263,814;  320,186;  308,706;  308,885
263,904;  293,686;  281,966;  285,905
263,995;  333,386;  322,276;  322,325
264,085;  305,186;  295,855;  294,575
264,175;  305,253;  296,706;  296,385
264,265;  325,086;  321,105;  321,865
264,356;  280,486;  270,466;  274,385
264,446;  310,819;  308,996;  307,575
264,536;  305,786;  294,026;  297,515
264,626;  325,386;  318,486;  320,175
264,716;  309,486;  298,435;  303,275
264,806;  316,419;  308,776;  310,415
264,897;  265,953;  258,135;  258,615
264,987;  319,753;  303,535;  304,475
265,077;  312,853;  287,046;  292,545
265,167;  377,253;  310,216;  311,575
265,257;  339,853;  290,445;  290,535
265,347;  336,253;  294,336;  295,795
265,437;  327,386;  296,176;  300,635
265,527;  315,253;  293,155;  294,765
265,617;  296,086;  279,875;  285,145
265,708;  320,786;  314,216;  314,825
265,798;  313,253;  305,415;  307,055
265,888;  307,919;  300,716;  305,545
265,978;  300,319;  294,496;  295,825
266,068;  318,186;  310,155;  315,855
266,158;  297,353;  294,005;  297,205
266,248;  277,686;  274,016;  276,865
266,338;  320,286;  313,035;  314,815
266,428;  308,353;  300,635;  302,655
266,518;  323,419;  311,405;  315,615
266,608;  306,552;  299,725;  294,215
266,698;  280,786;  273,586;  276,245
266,788;  280,686;  274,456;  277,745
266,878;  334,886;  325,776;  330,865
266,968;  312,119;  306,725;  309,425
267,058;  301,552;  297,375;  302,895
267,147;  312,219;  301,845;  302,905
267,237;  301,286;  291,815;  295,765
267,327;  289,786;  286,755;  287,895
267,417;  301,586;  301,225;  303,385
267,507;  301,586;  292,176;  294,215
267,597;  287,753;  282,026;  283,655
267,687;  291,853;  285,165;  287,755
267,777;  294,052;  283,986;  284,615
267,867;  324,019;  312,125;  312,585
267,956;  311,453;  302,466;  304,005
268,046;  306,652;  305,466;  310,865
268,136;  306,886;  296,875;  298,905
268,226;  281,353;  274,885;  274,965
268,316;  289,819;  280,766;  280,845
268,406;  295,319;  289,516;  287,595
268,495;  292,586;  284,415;  287,935
268,585;  307,519;  306,716;  309,605
268,675;  288,019;  284,336;  285,535
268,765;  302,119;  296,355;  300,115
268,854;  293,186;  285,935;  286,715
268,944;  299,519;  291,646;  293,805
269,034;  294,253;  283,986;  289,715
269,124;  295,319;  287,216;  290,705
269,213;  288,819;  286,336;  285,525
269,303;  294,819;  290,466;  288,585
269,393;  308,219;  299,845;  298,345
269,483;  304,353;  300,966;  302,735
269,572;  289,686;  282,875;  284,665
269,662;  285,519;  276,105;  283,315
269,752;  319,052;  312,736;  315,705
269,841;  276,253;  266,046;  269,455
269,931;  289,652;  281,586;  283,075
270,021;  308,453;  300,766;  304,675
270,110;  286,253;  285,695;  288,925
270,200;  303,552;  291,665;  299,445
270,289;  290,353;  280,785;  281,105
270,379;  311,486;  301,466;  302,775
270,469;  297,486;  290,556;  289,955
270,558;  311,552;  303,655;  302,185
270,648;  293,019;  282,785;  284,885
270,737;  299,319;  288,526;  291,525
270,827;  320,319;  310,185;  313,455
270,916;  302,353;  286,935;  289,915
271,006;  293,519;  293,475;  292,885
271,096;  320,586;  317,005;  317,215
271,185;  293,152;  289,896;  289,145
271,275;  307,419;  300,706;  303,575
271,364;  295,086;  281,535;  285,725
271,454;  314,853;  308,255;  315,275
271,543;  300,719;  296,935;  297,745
271,633;  292,552;  293,926;  292,835
271,722;  295,819;  292,255;  296,455
271,812;  291,286;  286,296;  289,275
271,901;  302,652;  292,326;  293,765
271,990;  294,719;  291,836;  290,915
272,080;  297,919;  290,635;  294,915
272,169;  311,286;  301,905;  302,555
272,259;  301,886;  293,225;  292,695
272,348;  309,486;  305,796;  308,535
272,438;  299,386;  296,935;  293,635
272,527;  312,586;  303,996;  304,365
272,616;  312,052;  301,866;  305,295
272,706;  327,152;  320,935;  323,195
272,795;  320,019;  314,076;  315,755
272,884;  303,186;  297,076;  299,515
272,974;  328,186;  317,975;  319,965
273,063;  340,719;  338,206;  337,765
273,152;  314,652;  310,306;  307,735
273,242;  330,353;  320,276;  324,915
273,331;  325,419;  319,315;  322,835
273,420;  310,552;  301,105;  310,255
273,510;  309,886;  307,355;  308,155
273,599;  309,853;  303,255;  306,195
273,688;  313,286;  302,605;  301,885
273,778;  285,486;  285,065;  287,095
273,867;  330,152;  320,266;  317,015
273,956;  309,886;  303,725;  303,805
274,045;  279,286;  273,966;  275,965
274,135;  311,753;  303,905;  305,375
274,224;  293,753;  286,516;  290,045
274,313;  312,219;  305,586;  307,745
274,402;  289,886;  284,796;  287,085
274,491;  312,019;  310,975;  312,995
274,581;  307,552;  301,415;  302,765
274,670;  297,419;  293,146;  294,385
274,759;  308,886;  299,405;  300,435
274,848;  279,519;  276,655;  279,925
274,937;  291,686;  289,945;  287,635
275,026;  294,686;  285,616;  287,835
275,116;  323,186;  316,415;  315,805
275,205;  293,552;  266,926;  271,135
275,294;  331,953;  302,315;  304,335
275,383;  304,019;  299,905;  297,985
275,472;  295,652;  290,005;  290,825
275,561;  298,953;  290,505;  290,285
275,650;  312,453;  306,046;  306,435
275,739;  298,253;  294,776;  297,985
275,828;  275,152;  274,635;  277,965
275,917;  315,186;  312,065;  306,825
276,006;  303,652;  295,426;  296,835
276,095;  297,652;  294,526;  298,665
276,184;  314,786;  309,556;  307,945
276,273;  312,586;  303,105;  304,505
276,362;  283,519;  275,896;  278,535
276,451;  296,119;  291,306;  291,915
276,540;  300,652;  295,896;  296,105
276,629;  293,186;  292,576;  293,225
276,718;  278,119;  270,695;  274,545
276,807;  278,552;  271,625;  274,825
276,896;  293,652;  280,526;  284,495
276,985;  299,986;  283,616;  289,365
277,074;  307,319;  299,105;  300,525
277,163;  298,986;  294,746;  299,085
277,252;  283,919;  279,646;  276,465
277,341;  291,419;  281,236;  289,265
277,430;  282,086;  276,845;  279,355
277,519;  303,586;  298,956;  301,695
277,608;  275,353;  266,546;  267,775
277,696;  273,519;  266,975;  269,445
277,785;  287,453;  284,095;  283,485
277,874;  307,586;  299,605;  296,795
277,963;  289,052;  288,155;  289,995
278,052;  275,086;  264,776;  265,525
278,141;  291,986;  288,415;  290,745
278,229;  301,586;  290,146;  291,935
278,318;  275,253;  268,236;  271,495
278,407;  297,186;  285,576;  285,935
278,496;  288,453;  289,915;  291,965
278,585;  308,586;  300,486;  302,275
278,673;  272,186;  263,836;  266,715
278,762;  279,753;  266,176;  270,485
278,851;  296,719;  285,496;  286,035
278,940;  305,119;  303,685;  303,305
279,028;  302,886;  296,306;  299,585
279,117;  292,586;  282,725;  286,655
279,206;  284,052;  279,475;  284,105
279,294;  286,819;  284,396;  286,665
279,383;  290,086;  286,646;  287,335
279,472;  303,386;  298,095;  298,295
279,561;  289,986;  283,355;  284,975
279,649;  306,953;  308,535;  308,935
279,738;  266,052;  255,566;  255,215
279,827;  311,353;  306,785;  308,805
279,915;  275,253;  275,285;  276,335
280,004;  299,619;  286,565;  288,905
280,092;  316,719;  305,236;  306,635
280,181;  294,253;  280,516;  282,605
280,270;  301,686;  277,866;  281,595
280,358;  308,119;  291,366;  288,915
280,447;  271,719;  261,415;  264,455
280,535;  282,853;  276,016;  275,945
280,624;  282,652;  274,185;  276,805
280,713;  288,353;  277,146;  283,385
280,801;  298,519;  293,116;  293,805
280,890;  300,386;  289,716;  295,475
280,978;  287,453;  280,755;  281,945
281,067;  255,586;  250,676;  255,865
281,155;  289,386;  274,855;  275,705
281,244;  326,453;  313,595;  316,445
281,332;  302,953;  290,845;  293,825
281,421;  282,453;  271,605;  273,675
281,509;  293,219;  284,646;  282,415
281,598;  268,919;  262,435;  263,765
281,686;  295,453;  290,776;  288,945
281,775;  290,619;  285,516;  290,815
281,863;  286,219;  278,016;  279,225
281,951;  284,219;  267,665;  270,735
282,040;  316,953;  300,315;  301,115
282,128;  307,186;  288,375;  294,235
282,217;  282,919;  265,926;  266,075
282,305;  309,919;  294,796;  294,045
282,393;  296,519;  286,505;  284,595
282,482;  292,086;  279,535;  283,255
282,570;  287,186;  266,945;  270,215
282,658;  292,086;  276,116;  277,715
282,747;  279,786;  265,026;  267,905
282,835;  322,919;  306,076;  309,035
282,923;  273,619;  264,655;  267,805
283,012;  292,786;  291,366;  296,345
283,100;  277,319;  269,185;  274,675
283,188;  264,253;  261,125;  262,525
283,277;  288,886;  284,336;  284,745
283,365;  279,186;  271,676;  278,375
283,453;  274,219;  264,755;  270,455
283,542;  302,486;  290,896;  293,765
283,630;  284,586;  276,195;  278,595
283,718;  273,253;  271,195;  274,365
283,806;  246,286;  241,706;  247,485
283,894;  280,953;  274,336;  274,395
283,983;  291,386;  282,165;  282,605
284,071;  297,953;  285,285;  291,495
284,159;  311,219;  309,125;  314,805
284,247;  298,152;  287,466;  288,555
284,335;  291,386;  286,935;  287,485
284,424;  298,019;  283,915;  288,465
284,512;  289,652;  283,475;  286,175
284,600;  283,353;  279,415;  280,145
284,688;  318,353;  312,815;  317,115
284,776;  291,586;  286,815;  287,745
284,864;  317,719;  302,125;  308,655
284,952;  299,652;  289,625;  289,025
285,041;  304,052;  298,255;  298,145
285,129;  304,886;  299,435;  302,445
285,217;  308,086;  300,056;  303,885
285,305;  318,386;  318,676;  319,885
285,393;  283,086;  275,776;  278,695
285,481;  292,453;  296,665;  298,405
285,569;  291,652;  282,966;  285,145
285,657;  303,686;  295,165;  296,255
285,745;  299,319;  292,655;  293,125
285,833;  293,753;  289,505;  293,165
285,921;  311,652;  298,116;  300,945
286,009;  311,453;  301,105;  303,655
286,097;  304,786;  298,236;  301,315
286,185;  292,019;  284,405;  284,795
286,273;  285,219;  283,415;  284,655
286,361;  314,853;  307,915;  311,825
286,449;  301,486;  296,195;  294,565
286,537;  307,886;  304,105;  302,085
286,625;  298,319;  291,185;  293,415
286,713;  282,119;  275,806;  280,315
286,801;  313,819;  312,076;  307,795
286,889;  326,619;  319,435;  320,055
286,976;  294,853;  287,905;  291,205
287,064;  319,219;  307,635;  311,875
287,152;  304,353;  303,576;  305,585
287,240;  318,853;  309,185;  308,845
287,328;  293,119;  287,685;  281,755
287,416;  299,486;  290,975;  292,385
287,504;  305,853;  294,435;  298,285
287,591;  305,319;  298,176;  300,225
287,679;  287,652;  286,095;  286,145
287,767;  305,552;  298,206;  296,985
287,855;  309,353;  303,736;  307,515
287,943;  314,253;  306,716;  309,435
288,030;  292,886;  293,456;  291,795
288,118;  319,953;  318,255;  318,995
288,206;  279,152;  274,956;  275,705
288,294;  306,253;  301,986;  304,135
288,382;  310,319;  300,776;  303,615
288,469;  314,319;  304,396;  308,895
288,557;  302,586;  294,095;  292,615
288,645;  326,219;  323,396;  323,315
288,732;  282,786;  278,915;  279,235
288,820;  314,152;  304,576;  306,785
288,908;  310,786;  304,826;  303,915
288,995;  316,519;  310,945;  310,305
289,083;  305,919;  293,026;  292,935
289,171;  333,719;  320,165;  325,565
289,258;  376,619;  322,176;  324,305
289,346;  438,853;  326,266;  329,365
289,434;  318,119;  303,435;  306,185
289,521;  291,253;  280,415;  286,295
289,609;  322,019;  320,426;  325,405
289,697;  321,886;  312,336;  315,125
289,784;  306,552;  295,445;  295,775
289,872;  316,519;  306,905;  313,015
289,959;  285,786;  282,375;  283,415
290,047;  311,786;  296,546;  300,865
290,134;  279,086;  272,665;  273,815
290,222;  315,219;  308,915;  308,665
290,310;  313,819;  304,905;  307,145
290,397;  336,619;  328,505;  332,835
290,485;  297,052;  290,815;  293,005
290,572;  321,619;  313,225;  314,645
290,660;  313,652;  306,385;  306,205
290,747;  296,886;  295,165;  292,775
290,835;  304,419;  299,016;  302,505
290,922;  307,186;  304,016;  305,515
291,009;  306,152;  297,676;  301,715
291,097;  305,853;  297,926;  300,755
291,184;  336,819;  332,716;  338,585
291,272;  292,253;  282,966;  288,375
291,359;  291,319;  283,915;  289,305
291,447;  307,686;  303,086;  304,735
291,534;  326,953;  327,326;  323,005
291,621;  300,686;  302,845;  301,105
291,709;  289,486;  285,716;  283,705
291,796;  322,619;  320,146;  316,555
291,884;  298,419;  291,466;  296,115
291,971;  325,086;  315,065;  320,295
292,058;  297,619;  288,725;  288,985
292,146;  297,286;  293,746;  297,955
292,233;  291,953;  285,426;  284,765
292,320;  298,253;  294,306;  297,685
292,408;  312,686;  309,086;  308,565
292,495;  306,652;  290,565;  293,085
292,582;  296,419;  286,845;  287,375
292,669;  286,152;  281,415;  286,055
292,757;  287,853;  282,176;  283,865
292,844;  313,786;  312,935;  313,175
292,931;  283,052;  275,176;  277,485
293,018;  297,486;  291,516;  289,915
293,106;  311,552;  299,966;  303,035
293,193;  281,019;  272,415;  274,385
293,280;  310,052;  297,255;  303,635
293,367;  304,453;  296,956;  295,215
293,455;  301,886;  293,185;  294,155
293,542;  279,086;  275,695;  281,445
293,629;  287,719;  279,035;  281,855
293,716;  314,119;  305,646;  311,195
293,803;  285,786;  287,105;  287,695
293,890;  310,853;  310,336;  312,555
293,978;  296,719;  284,105;  290,755
294,065;  292,786;  286,725;  284,345
294,152;  311,253;  302,385;  304,355
294,239;  284,819;  275,646;  274,625
294,326;  294,319;  286,746;  290,635
294,413;  286,953;  278,046;  278,465
294,500;  300,152;  292,586;  295,255
294,587;  288,186;  283,915;  287,195
294,674;  309,186;  305,875;  306,925
294,761;  294,419;  288,896;  287,945
294,848;  299,019;  286,866;  294,115
294,935;  293,753;  290,746;  290,555
295,022;  275,686;  272,396;  274,105
295,109;  271,886;  258,466;  262,665
295,196;  305,353;  291,405;  295,265
295,283;  285,552;  281,176;  278,745
295,370;  318,119;  308,975;  312,155
295,457;  306,152;  289,986;  290,435
295,544;  288,253;  285,105;  287,985
295,631;  292,019;  290,165;  295,805
295,718;  278,419;  272,676;  274,015
295,805;  302,786;  296,225;  296,685
295,892;  306,186;  300,005;  304,445
295,979;  305,519;  291,266;  292,755
296,066;  306,319;  293,996;  296,145
296,153;  307,019;  296,026;  296,355
296,240;  314,319;  299,206;  300,535
296,327;  295,552;  285,206;  285,615
296,413;  321,719;  301,285;  305,075
296,500;  338,186;  302,755;  305,145
296,587;  517,019;  288,616;  286,065
296,674; 1638,586;  294,396;  297,335
296,761;  826,419;  300,095;  298,245
296,848;  310,886;  281,956;  285,815
296,934;  301,119;  290,966;  295,265
297,021;  298,786;  292,565;  292,975
297,108;  284,919;  276,366;  280,895
297,195;  294,986;  291,466;  294,705
297,282;  293,486;  286,535;  286,195
297,368;  319,986;  310,026;  305,975
297,455;  286,886;  279,155;  283,145
297,542;  320,286;  311,375;  313,235
297,629;  301,986;  299,016;  300,205
297,715;  316,786;  308,285;  310,385
297,802;  304,619;  300,466;  303,285
297,889;  319,686;  311,716;  313,025
297,975;  334,719;  322,836;  323,685
298,062;  322,152;  310,505;  312,995
298,149;  281,986;  273,505;  274,905
298,235;  300,086;  291,135;  294,075
298,322;  304,019;  294,806;  292,785
298,409;  315,319;  311,195;  312,715
298,495;  291,652;  285,435;  283,435
298,582;  316,719;  307,516;  308,065
298,669;  298,886;  290,526;  294,245
298,755;  304,719;  299,065;  302,235
298,842;  310,652;  304,755;  309,095
298,928;  310,353;  303,855;  304,595
299,015;  298,353;  294,896;  296,705
299,102;  325,586;  318,986;  320,565
299,188;  321,552;  315,956;  316,045
299,275;  311,652;  309,926;  309,365
299,361;  281,886;  278,875;  281,665
299,448;  315,586;  312,466;  310,885
299,534;  315,453;  312,355;  312,735
299,621;  310,019;  304,655;  303,865
299,707;  305,853;  299,016;  304,675
299,794;  320,753;  319,885;  319,685
299,880;  328,052;  317,076;  318,325
299,967;  305,453;  296,345;  296,295
300,053;  301,686;  295,935;  299,065
300,140;  329,819;  323,086;  328,875
300,226;  316,253;  313,885;  313,595
300,312;  312,253;  307,276;  306,695
300,399;  312,486;  305,505;  308,465
300,485;  301,819;  297,776;  301,725
300,572;  285,619;  281,655;  281,655
300,658;  302,253;  297,216;  294,585
300,744;  315,319;  310,706;  311,315
300,831;  322,719;  313,595;  318,275
300,917;  324,219;  321,676;  320,915
301,004;  314,853;  311,556;  311,015
301,090;  283,853;  277,785;  280,095
301,176;  289,019;  284,255;  288,205
301,263;  319,486;  313,676;  314,925
301,349;  293,419;  289,475;  293,305
301,435;  289,919;  284,276;  285,095
301,521;  320,652;  314,625;  313,245
301,608;  325,586;  314,695;  315,515
301,694;  311,286;  297,896;  300,535
301,780;  307,686;  303,046;  298,285
301,867;  290,853;  280,836;  285,265
301,953;  313,652;  296,595;  301,165
302,039;  387,219;  295,116;  297,515
302,125;  542,986;  298,445;  304,125
302,211;  366,886;  332,926;  334,115
302,298;  357,186;  301,926;  305,295
302,384;  303,353;  281,116;  287,095
302,470;  293,886;  289,505;  291,305
302,556;  316,619;  301,935;  305,645
302,642;  299,686;  293,456;  295,155
302,729;  304,619;  289,306;  293,525
302,815;  316,152;  317,966;  319,775
302,901;  300,253;  296,475;  298,745
302,987;  312,986;  307,716;  308,245
303,073;  301,919;  304,185;  302,795
303,159;  301,619;  296,945;  298,695
303,245;  293,753;  284,336;  290,495
303,331;  290,686;  283,486;  286,455
303,417;  300,886;  294,556;  296,145
303,503;  312,152;  310,046;  312,155
303,590;  292,086;  289,146;  291,705
303,676;  303,419;  299,505;  300,385
303,762;  299,519;  287,185;  287,835
303,848;  322,486;  311,026;  312,055
303,934;  308,786;  304,915;  307,775
304,020;  307,652;  301,796;  304,745
304,106;  313,019;  309,975;  314,015
304,192;  303,486;  291,796;  296,765
304,278;  302,819;  302,896;  304,455
304,364;  332,719;  323,026;  324,755
304,450;  310,753;  301,496;  304,095
304,535;  308,253;  304,005;  304,245
304,621;  311,919;  301,565;  302,205
304,707;  313,386;  306,296;  307,635
304,793;  325,353;  318,625;  318,575
304,879;  313,419;  306,776;  310,585
304,965;  319,819;  312,845;  313,365
305,051;  318,019;  308,616;  311,355
305,137;  325,753;  318,146;  324,235
305,223;  291,286;  291,445;  293,725
305,309;  313,119;  313,496;  317,755
305,394;  312,719;  311,996;  311,465
305,480;  305,319;  299,426;  304,775
305,566;  309,652;  309,355;  310,525
305,652;  315,552;  313,605;  317,885
305,738;  352,652;  349,206;  353,435
305,824;  315,353;  316,016;  315,095
305,909;  329,052;  323,815;  325,155
305,995;  296,853;  289,595;  290,025
306,081;  348,486;  348,345;  350,435
306,167;  310,686;  303,966;  307,875
306,252;  330,819;  324,375;  325,505
306,338;  338,719;  331,366;  335,515
306,424;  312,552;  306,595;  307,415
306,510;  321,186;  316,105;  319,795
306,595;  327,086;  323,685;  322,125
306,681;  315,753;  316,926;  318,895
306,767;  312,419;  305,336;  309,425
306,852;  335,219;  328,255;  331,375
306,938;  327,186;  325,796;  325,905
307,024;  300,519;  302,875;  304,755
307,109;  340,319;  336,065;  338,965
307,195;  320,086;  316,326;  318,385
307,281;  328,886;  318,716;  318,575
307,366;  318,219;  313,345;  310,455
307,452;  320,719;  312,426;  316,335
307,537;  303,086;  296,776;  298,485
307,623;  298,186;  292,105;  296,985
307,709;  314,019;  309,885;  310,795
307,794;  289,353;  288,576;  291,835
307,880;  324,786;  320,236;  319,735
307,965;  310,586;  307,456;  307,525
308,051;  299,019;  297,195;  298,065
308,136;  303,086;  297,165;  296,745
308,222;  305,086;  300,366;  302,045
308,307;  296,919;  295,116;  296,645
308,393;  300,953;  295,535;  300,335
308,478;  324,152;  321,826;  318,975
308,564;  297,919;  295,516;  288,925
308,649;  310,219;  308,496;  308,295
308,735;  306,652;  294,155;  300,535
308,820;  323,286;  320,655;  319,455
308,906;  309,619;  291,625;  300,515
308,991;  347,353;  341,076;  338,375
309,076;  323,753;  319,336;  320,645
309,162;  285,286;  283,945;  283,805
309,247;  313,552;  309,945;  308,415
309,333;  298,353;  291,646;  297,855
309,418;  301,186;  298,665;  301,955
309,503;  300,619;  297,646;  300,235
309,589;  312,819;  303,725;  305,345
309,674;  288,719;  290,945;  289,235
309,759;  308,853;  303,315;  304,195
309,845;  317,152;  311,016;  312,415
309,930;  307,186;  305,966;  307,375
310,015;  279,419;  276,095;  276,835
310,101;  324,753;  315,616;  319,905
310,186;  287,486;  285,426;  288,565
310,271;  301,386;  297,296;  298,295
310,357;  295,519;  297,526;  296,455
310,442;  309,186;  302,445;  303,865
310,527;  304,719;  297,766;  301,125
310,612;  284,686;  278,195;  281,425
310,698;  320,619;  319,725;  321,135
310,783;  302,919;  301,176;  302,685
310,868;  295,753;  294,285;  295,125
310,953;  293,919;  284,165;  285,195
311,038;  317,986;  311,146;  310,075
311,124;  300,319;  294,635;  290,925
311,209;  288,719;  276,736;  277,355
311,294;  320,686;  310,206;  312,575
311,379;  282,386;  276,785;  277,345
311,464;  310,186;  297,405;  297,635
311,549;  293,186;  282,385;  284,505
311,634;  294,886;  290,396;  286,805
311,719;  321,586;  316,016;  315,415
311,805;  299,052;  289,266;  291,605
311,890;  303,486;  295,165;  295,925
311,975;  295,919;  281,526;  286,055
312,060;  317,619;  298,146;  302,435
312,145;  292,953;  277,586;  276,025
312,230;  321,953;  290,815;  296,495
312,315;  337,686;  294,065;  296,045
312,400;  399,586;  296,396;  299,795
312,485; 1557,819;  290,535;  292,475
312,570; 1277,552;  277,125;  279,615
312,655;  351,786;  308,176;  313,325
312,740;  336,786;  301,616;  302,005
312,825;  338,086;  304,105;  307,725
312,910;  358,453;  307,736;  309,235
312,995;  442,086;  296,236;  298,245
313,080; 1917,853;  285,655;  286,805
313,165; 2214,619;  303,565;  305,305
313,250;  367,586;  287,276;  287,825
313,335;  329,386;  307,435;  312,125
313,419;  286,552;  267,466;  268,635
313,504;  332,819;  313,355;  315,225
313,589;  305,652;  295,216;  297,545
313,674;  313,919;  307,206;  310,085
313,759;  293,119;  281,556;  282,625
313,844;  302,253;  292,776;  291,005
313,929;  300,419;  289,945;  291,695
314,014;  321,919;  313,306;  315,005
314,098;  306,886;  299,035;  300,425
314,183;  273,719;  263,505;  263,795
314,268;  307,886;  296,496;  298,955
314,353;  311,986;  302,026;  306,185
314,438;  315,853;  306,905;  311,515
314,522;  318,253;  309,486;  308,535
314,607;  308,152;  307,565;  307,855
314,692;  310,386;  301,885;  303,855
314,777;  296,719;  291,766;  292,395
314,861;  280,753;  277,285;  276,385
314,946;  315,552;  315,116;  317,565
315,031;  296,686;  291,875;  294,115
315,115;  307,819;  306,206;  308,065
315,200;  323,919;  312,146;  313,065
315,285;  291,186;  289,486;  289,595
315,369;  287,219;  287,945;  288,545
315,454;  315,986;  311,905;  311,025
315,539;  314,753;  310,246;  307,795
315,623;  313,886;  309,426;  313,225
315,708;  337,052;  335,605;  336,825
315,793;  303,552;  297,986;  298,155
315,877;  310,319;  302,975;  305,445
315,962;  293,152;  289,105;  291,925
316,046;  323,686;  317,065;  319,225
316,131;  343,619;  334,516;  337,215
316,216;  313,953;  310,315;  310,785
316,300;  301,719;  303,345;  302,165
316,385;  328,753;  325,315;  324,305
316,469;  332,686;  330,625;  331,955
316,554;  301,386;  296,005;  298,425
316,638;  298,519;  296,725;  301,565
316,723;  296,186;  292,546;  293,795
316,807;  303,086;  299,595;  299,275
316,892;  292,953;  288,975;  289,925
316,976;  319,719;  314,405;  316,505
317,061;  311,686;  306,035;  305,965
317,145;  331,086;  327,655;  325,965
317,230;  322,719;  321,505;  319,905
317,314;  281,119;  275,565;  275,085
317,398;  314,286;  310,706;  312,245
317,483;  294,186;  290,026;  291,085
317,567;  317,386;  315,326;  317,865
317,652;  292,386;  283,526;  286,625
317,736;  314,619;  308,776;  309,285
317,820;  339,953;  329,005;  334,665
317,905;  312,386;  306,706;  307,035
317,989;  305,086;  298,285;  300,875
318,073;  302,052;  298,076;  297,705
318,158;  292,819;  284,966;  285,565
318,242;  302,652;  296,845;  299,095
318,326;  288,786;  283,155;  284,015
318,411;  296,919;  295,125;  296,565
318,495;  283,953;  285,776;  287,165
318,579;  296,886;  288,746;  289,305
318,664;  283,086;  280,315;  284,255
318,748;  309,353;  305,996;  310,145
318,832;  289,986;  290,806;  289,475
318,916;  281,986;  274,785;  277,335
319,001;  300,986;  299,945;  301,485
319,085;  298,453;  292,885;  290,905
319,169;  296,019;  293,396;  294,485
319,253;  291,853;  287,216;  285,525
319,337;  308,386;  306,246;  304,885
319,422;  316,052;  316,125;  313,225
319,506;  286,419;  283,326;  285,905
319,590;  301,953;  303,915;  305,525
319,674;  295,353;  291,926;  295,405
319,758;  301,919;  295,165;  300,215
319,842;  308,052;  306,135;  309,155
319,926;  299,219;  294,815;  295,205
320,010;  268,552;  267,046;  269,575
320,095;  286,286;  280,926;  284,685
320,179;  279,786;  279,125;  281,175
320,263;  293,953;  277,385;  285,805
320,347;  279,619;  271,296;  279,075
320,431;  273,152;  273,435;  274,355
320,515;  302,286;  296,375;  299,935
320,599;  274,786;  269,866;  273,825
320,683;  305,819;  305,706;  305,495
320,767;  268,686;  266,236;  266,205
320,851;  285,152;  281,855;  287,785
320,935;  321,986;  312,565;  318,275
321,019;  296,819;  292,975;  290,075
321,103;  282,586;  278,135;  280,585
321,187;  280,519;  273,165;  273,265
321,271;  301,219;  294,616;  296,825
321,355;  287,353;  281,595;  283,805
321,439;  303,819;  301,216;  301,725
321,523;  287,353;  282,266;  284,705
321,606;  289,486;  287,426;  288,215
321,690;  292,753;  287,026;  288,215
321,774;  295,186;  288,336;  292,205
321,858;  292,753;  292,966;  291,945
321,942;  295,619;  294,276;  298,975
322,026;  287,552;  283,315;  282,695
322,110;  300,919;  293,146;  295,755
322,194;  296,719;  295,355;  301,055
322,277;  289,286;  286,135;  287,285
322,361;  286,253;  278,595;  281,215
322,445;  289,486;  289,315;  291,095
322,529;  307,386;  297,716;  299,645
322,613;  296,453;  297,206;  297,795
322,696;  268,886;  267,695;  272,865
322,780;  282,686;  283,026;  283,485
322,864;  284,186;  272,625;  279,835
322,948;  299,486;  292,326;  295,965
323,031;  285,586;  281,565;  282,215
323,115;  288,919;  284,586;  285,215
323,199;  301,219;  296,565;  299,105
323,282;  308,152;  307,496;  310,065
323,366;  292,253;  287,296;  293,625
323,450;  280,319;  273,496;  275,835
323,533;  316,052;  314,576;  317,415
323,617;  272,619;  268,695;  271,585
323,701;  286,719;  281,105;  283,575
323,784;  294,386;  292,576;  294,205
323,868;  302,019;  297,866;  299,875
323,952;  301,152;  290,966;  294,175
324,035;  312,886;  305,926;  310,825
324,119;  300,519;  295,466;  298,455
324,202;  295,319;  286,836;  292,745
324,286;  293,486;  284,986;  286,605
324,370;  300,886;  293,105;  296,765
324,453;  301,719;  299,616;  301,745
324,537;  298,052;  294,426;  298,035
324,620;  297,819;  286,635;  291,765
324,704;  274,919;  270,445;  276,525
324,787;  291,453;  294,875;  296,265
324,871;  319,552;  310,986;  315,255
324,954;  309,719;  312,246;  315,985
325,038;  313,119;  306,466;  306,985
325,121;  314,152;  308,695;  312,075
325,205;  296,786;  290,396;  293,295
325,288;  287,953;  279,556;  285,675
325,371;  305,152;  298,945;  302,395
325,455;  319,152;  314,026;  312,045
325,538;  286,186;  281,516;  287,185
325,622;  324,586;  320,806;  321,295
325,705;  299,719;  297,716;  298,675
325,788;  320,753;  313,625;  316,645
325,872;  304,019;  300,796;  300,745
325,955;  329,753;  319,845;  325,065
326,039;  311,419;  309,576;  312,795
326,122;  313,586;  310,746;  311,665
326,205;  317,886;  311,806;  310,235
326,289;  317,719;  313,986;  319,245
326,372;  307,419;  294,746;  299,195
326,455;  328,853;  323,095;  324,405
326,538;  319,319;  312,336;  316,545
326,622;  324,386;  318,396;  320,075
326,705;  288,652;  287,315;  287,875
326,788;  323,186;  321,266;  322,405
326,871;  322,986;  315,576;  317,965
326,955;  316,719;  313,836;  315,225
327,038;  311,319;  310,116;  310,855
327,121;  310,886;  301,516;  307,855
327,204;  318,586;  313,216;  314,045
327,288;  334,286;  328,956;  332,375
327,371;  293,086;  288,185;  296,955
327,454;  321,552;  313,065;  313,845
327,537;  304,353;  299,815;  302,435
327,620;  333,219;  322,935;  330,145
327,703;  314,152;  309,076;  310,615
327,786;  315,019;  311,076;  312,115
327,870;  328,119;  323,155;  328,715
327,953;  303,152;  301,155;  305,785
328,036;  302,453;  293,105;  299,035
328,119;  323,686;  317,576;  321,135
328,202;  309,419;  301,885;  305,875
328,285;  331,619;  326,776;  329,015
328,368;  327,052;  320,935;  322,625
328,451;  321,619;  320,635;  322,565
328,534;  308,853;  301,266;  307,075
328,617;  312,519;  305,676;  311,785
328,700;  337,719;  326,505;  326,695
328,783;  330,186;  320,785;  322,875
328,866;  326,519;  314,095;  319,935
328,949;  331,152;  319,966;  326,555
329,032;  302,519;  297,826;  300,605
329,115;  294,019;  290,905;  295,945
329,198;  289,253;  282,956;  283,785
329,281;  298,953;  299,336;  298,465
329,364;  322,719;  316,246;  319,245
329,447;  310,652;  307,176;  309,255
329,530;  330,519;  328,155;  328,175
329,613;  308,919;  300,565;  306,725
329,696;  334,953;  326,806;  330,715
329,778;  317,119;  311,306;  316,915
329,861;  302,619;  295,236;  299,565
329,944;  328,219;  321,685;  327,225
330,027;  317,853;  311,576;  315,115
330,110;  318,219;  307,595;  311,705
330,193;  300,953;  295,306;  299,955
330,275;  317,853;  312,296;  315,835
330,358;  297,619;  291,776;  296,185
330,441;  326,519;  323,586;  325,365
330,524;  312,353;  305,216;  311,095
330,607;  309,386;  304,345;  306,905
330,689;  313,186;  313,105;  314,535
330,772;  314,019;  311,105;  312,425
330,855;  329,853;  325,065;  327,855
330,938;  326,419;  312,315;  321,275
331,020;  322,552;  317,176;  320,535
331,103;  297,819;  293,035;  294,505
331,186;  309,152;  305,146;  307,085
331,268;  302,919;  293,565;  298,695
331,351;  318,819;  313,026;  316,455
331,434;  316,519;  308,385;  312,645
331,516;  322,086;  319,076;  321,185
331,599;  308,786;  297,095;  301,425
331,682;  313,152;  310,736;  310,985
331,764;  295,786;  293,326;  297,915
331,847;  314,919;  313,716;  315,705
331,929;  293,186;  290,026;  293,225
332,012;  315,519;  309,625;  310,055
332,095;  330,453;  323,306;  326,625
332,177;  327,386;  320,806;  324,285
332,260;  326,152;  327,526;  328,035
332,342;  316,819;  309,246;  314,445
332,425;  315,353;  312,516;  311,505
332,507;  316,119;  308,526;  311,575
332,590;  293,519;  287,595;  291,655
332,672;  302,119;  294,885;  298,455
332,755;  312,152;  306,855;  311,605
332,837;  307,786;  310,716;  312,255
332,920;  315,686;  309,076;  315,155
333,002;  331,586;  325,676;  328,895
333,085;  309,953;  313,375;  315,165
333,167;  299,119;  296,875;  298,575
333,249;  299,486;  294,526;  298,145
333,332;  299,486;  293,296;  297,715
333,414;  301,819;  300,035;  304,875
333,497;  305,753;  300,255;  302,305
333,579;  302,619;  300,996;  306,375
333,661;  322,119;  319,706;  320,745
333,744;  295,686;  293,695;  297,125
333,826;  309,719;  305,766;  306,065
333,908;  322,119;  313,896;  316,665
333,991;  309,652;  291,266;  291,545
334,073;  467,819;  312,706;  318,525
334,155;  361,619;  304,086;  305,525
334,238;  332,152;  318,576;  326,145
334,320;  308,219;  297,046;  300,585
334,402;  309,219;  302,996;  304,895
334,485;  302,552;  303,655;  304,015
334,567;  304,552;  299,776;  301,975
334,649;  291,719;  278,426;  282,925
334,731;  316,486;  313,456;  317,305
334,813;  320,152;  315,605;  320,355
334,896;  294,953;  290,185;  294,595
334,978;  307,886;  309,165;  302,585
335,060;  308,353;  304,255;  304,235
335,142;  304,586;  301,665;  302,275
335,224;  315,953;  309,766;  311,745
335,307;  300,386;  297,456;  298,965
335,389;  321,453;  310,385;  317,305
335,471;  302,152;  299,896;  306,115
335,553;  327,986;  319,866;  318,905
335,635;  315,753;  312,836;  315,315
335,717;  303,386;  298,195;  300,145
335,799;  325,953;  322,695;  323,585
335,881;  291,086;  278,385;  282,845
335,963;  296,219;  291,796;  293,005
336,045;  298,686;  295,516;  301,085
336,128;  281,186;  270,945;  275,225
336,210;  295,453;  288,996;  292,295
336,292;  301,652;  297,845;  300,615
336,374;  310,519;  300,956;  306,155
336,456;  296,286;  285,616;  288,495
336,538;  302,586;  303,165;  304,435
336,620;  311,453;  310,576;  312,205
336,702;  295,552;  294,766;  294,235
336,783;  311,786;  302,556;  304,225
336,865;  310,919;  304,176;  305,725
336,947;  311,019;  308,486;  311,205
337,029;  288,719;  281,826;  282,945
337,111;  321,019;  316,266;  316,735
337,193;  288,319;  280,986;  284,795
337,275;  316,386;  310,815;  314,535
337,357;  327,853;  318,815;  324,805
337,439;  310,152;  305,255;  310,655
337,521;  279,753;  277,225;  280,915
337,602;  302,619;  298,435;  301,085
337,684;  323,853;  315,635;  317,455
337,766;  314,353;  312,266;  312,305
337,848;  304,786;  295,086;  301,025
337,930;  306,953;  303,165;  306,525
338,012;  305,353;  298,586;  299,555
338,093;  315,953;  312,396;  315,895
338,175;  320,853;  318,195;  321,575
338,257;  310,753;  306,945;  309,225
338,339;  300,453;  294,086;  300,165
338,420;  320,453;  310,986;  310,895
338,502;  300,719;  298,836;  304,265
338,584;  290,052;  286,736;  289,235
338,666;  311,853;  303,426;  302,365
338,747;  340,519;  330,806;  334,875
338,829;  311,119;  309,176;  309,265
338,911;  301,953;  296,236;  298,915
338,992;  302,219;  295,746;  294,435
339,074;  313,853;  306,155;  307,855
339,156;  305,219;  298,176;  303,395
339,237;  328,686;  325,035;  327,765
339,319;  299,953;  294,935;  300,045
339,400;  314,419;  309,065;  311,225
339,482;  283,419;  278,165;  280,605
339,564;  320,386;  317,026;  316,575
339,645;  308,753;  304,595;  308,105
339,727;  296,152;  290,216;  294,375
339,808;  330,453;  317,685;  322,555
339,890;  303,619;  299,956;  302,415
339,971;  316,819;  307,016;  315,055
340,053;  340,853;  336,746;  335,255
340,134;  306,019;  296,535;  298,415
340,216;  322,586;  315,556;  319,645
340,297;  301,152;  298,396;  301,525
340,379;  321,919;  314,736;  316,975
340,460;  309,386;  306,685;  306,615
340,542;  301,386;  294,535;  297,775
340,623;  313,319;  307,926;  312,435
340,705;  296,819;  297,516;  295,795
340,786;  295,219;  289,685;  291,925
340,868;  305,119;  308,826;  304,055
340,949;  287,319;  285,605;  286,145
341,030;  327,119;  321,435;  328,715
341,112;  288,486;  280,565;  284,075
341,193;  278,386;  270,135;  273,595
341,274;  324,786;  322,176;  320,965
341,356;  326,219;  320,716;  321,795
341,437;  302,119;  301,635;  300,825
341,518;  313,253;  307,176;  314,795
341,600;  327,052;  320,866;  322,465
341,681;  327,919;  328,866;  332,375
341,762;  331,719;  325,206;  323,705
341,844;  294,652;  287,146;  292,185
341,925;  313,119;  308,225;  311,205
342,006;  325,086;  320,426;  323,055
342,087;  293,619;  288,095;  292,095
342,169;  314,953;  307,026;  309,845
342,250;  289,919;  286,935;  285,935
342,331;  299,353;  298,706;  299,075
342,412;  311,853;  307,655;  310,045
342,493;  292,152;  289,415;  293,325
342,575;  333,953;  327,095;  327,355
342,656;  322,453;  318,466;  318,265
342,737;  329,353;  329,836;  330,295
342,818;  312,486;  307,996;  309,015
342,899;  316,353;  314,505;  317,165
342,980;  313,453;  306,695;  310,155
343,061;  307,386;  303,065;  304,715
343,143;  323,386;  319,535;  319,565
343,224;  310,786;  306,706;  305,915
343,305;  305,453;  299,625;  303,115
343,386;  302,552;  297,996;  300,475
343,467;  304,586;  303,155;  305,535
343,548;  305,719;  304,176;  305,935
343,629;  317,386;  316,405;  317,625
343,710;  327,853;  322,766;  321,015
343,791;  325,152;  325,065;  327,935
343,872;  304,152;  298,975;  297,795
343,953;  324,086;  314,826;  316,625
344,034;  313,686;  319,475;  324,485
344,115;  303,986;  304,255;  303,425
344,196;  302,219;  298,935;  302,165
344,277;  300,019;  293,306;  294,615
344,358;  313,052;  304,755;  307,345
344,439;  293,519;  293,975;  294,205
344,520;  305,519;  298,546;  300,975
344,601;  315,919;  314,646;  315,525
344,681;  307,686;  302,426;  303,825
344,762;  292,219;  283,466;  287,625
344,843;  284,086;  275,996;  281,125
344,924;  310,353;  303,635;  306,085
345,005;  295,453;  287,176;  288,725
345,086;  311,453;  307,665;  309,725
345,167;  300,686;  293,986;  295,575
345,247;  329,586;  323,896;  328,905
345,328;  320,786;  315,315;  317,705
345,409;  311,686;  307,056;  309,355
345,490;  310,652;  308,415;  314,245
345,571;  314,019;  304,875;  312,045
345,651;  287,219;  279,456;  279,055
345,732;  315,886;  307,285;  312,275
345,813;  319,052;  311,836;  317,355
345,894;  295,753;  285,785;  287,595
345,974;  319,652;  309,556;  311,845
346,055;  299,919;  296,435;  295,735
346,136;  310,319;  304,405;  306,245
346,216;  327,886;  324,945;  328,565
346,297;  307,286;  306,565;  304,225
346,378;  295,453;  291,996;  294,005
346,458;  314,486;  307,375;  313,405
346,539;  310,619;  302,306;  305,975
346,620;  301,419;  305,815;  306,685
346,700;  292,453;  288,755;  289,765
346,781;  293,552;  284,556;  286,765
346,861;  308,819;  304,336;  307,325
346,942;  308,919;  304,336;  302,715
347,023;  319,586;  317,885;  316,005
347,103;  300,586;  297,396;  302,825
347,184;  299,853;  294,475;  296,785
347,264;  297,986;  294,565;  296,805
347,345;  295,286;  290,526;  295,525
347,425;  286,853;  285,125;  290,565
347,506;  280,953;  283,595;  283,195
347,586;  291,686;  289,725;  292,435
347,667;  308,853;  307,616;  304,445
347,747;  310,152;  311,116;  310,775
347,828;  299,786;  296,486;  296,465
347,908;  312,753;  303,306;  307,175
347,988;  301,219;  298,655;  306,125
348,069;  312,753;  311,056;  311,395
348,149;  315,986;  303,956;  309,065
348,230;  313,119;  309,956;  310,945
348,310;  284,386;  284,185;  285,715
348,390;  295,019;  288,526;  288,625
348,471;  311,219;  303,665;  305,125
348,551;  299,586;  290,695;  293,935
348,632;  290,319;  289,505;  294,065
348,712;  298,253;  292,706;  295,115
348,792;  327,419;  329,836;  329,985
348,873;  289,552;  281,905;  283,045
348,953;  295,586;  289,845;  290,395
349,033;  303,519;  297,466;  299,465
349,113;  289,219;  286,076;  286,905
349,194;  301,786;  301,595;  304,825
349,274;  309,753;  304,796;  307,395
349,354;  305,319;  303,046;  308,435
349,434;  303,386;  300,116;  301,925
349,515;  319,986;  316,486;  322,185
349,595;  308,286;  302,206;  302,035
349,675;  313,219;  305,635;  308,015
349,755;  298,119;  296,746;  297,615
349,835;  311,953;  301,195;  307,695
349,916;  301,753;  298,435;  303,915
349,996;  290,086;  291,105;  291,745
350,076;  319,486;  312,375;  317,645
350,156;  288,286;  284,836;  287,665
350,236;  319,219;  314,116;  311,925
350,316;  294,519;  292,975;  295,765
350,396;  312,419;  305,646;  310,065
350,476;  305,686;  301,826;  304,275
350,556;  305,552;  293,966;  299,935
350,637;  325,619;  321,005;  321,825
350,717;  294,453;  288,445;  291,825
350,797;  308,486;  302,616;  305,905
350,877;  303,253;  289,875;  294,705
350,957;  305,719;  297,635;  300,095
351,037;  302,619;  298,556;  303,455
351,117;  301,353;  296,276;  296,555
351,197;  303,652;  303,366;  306,305
351,277;  306,953;  300,556;  301,575
351,357;  319,486;  308,806;  314,445
351,437;  307,219;  306,105;  307,755
351,516;  319,786;  317,986;  318,355
351,596;  297,119;  292,896;  296,025
351,676;  294,786;  290,405;  294,265
351,756;  337,152;  323,426;  326,135
351,836;  319,786;  313,866;  317,935
351,916;  297,119;  297,905;  298,975
351,996;  306,519;  303,996;  305,265
352,076;  305,953;  303,486;  303,085
352,156;  325,453;  319,556;  320,405
352,235;  301,386;  301,255;  300,955
352,315;  316,486;  312,456;  314,415
352,395;  309,652;  308,206;  309,425
352,475;  319,353;  315,405;  320,955
352,555;  335,319;  330,236;  330,635
352,634;  332,753;  321,956;  326,705
352,714;  308,186;  302,595;  304,055
352,794;  362,786;  354,466;  358,075
352,874;  317,819;  314,685;  317,555
352,953;  340,853;  337,676;  339,095
353,033;  325,919;  319,306;  320,925
353,113;  337,453;  332,135;  336,575
353,193;  322,353;  328,046;  329,935
353,272;  339,286;  333,135;  334,365
353,352;  313,819;  307,035;  311,285
353,432;  352,619;  343,005;  347,495
353,511;  322,486;  326,185;  330,665
353,591;  368,719;  361,616;  362,555
353,671;  334,386;  331,926;  333,015
353,750;  335,619;  332,296;  331,275
353,830;  318,419;  313,646;  317,015
353,909;  344,453;  339,836;  343,655
353,989;  321,519;  317,385;  320,255
354,069;  323,919;  319,456;  319,155
354,148;  341,253;  335,035;  339,585
354,228;  318,219;  315,695;  316,905
354,307;  332,286;  329,405;  332,345
354,387;  328,019;  322,095;  322,965
354,466;  315,086;  311,635;  316,045
354,546;  341,519;  335,135;  337,645
354,625;  319,253;  319,815;  320,355
354,705;  332,453;  324,246;  326,865
354,784;  326,186;  316,445;  318,195
354,864;  321,886;  316,635;  317,385
354,943;  341,286;  333,695;  339,105
355,023;  318,686;  310,996;  312,285
355,102;  365,953;  362,866;  363,435
355,181;  317,719;  315,966;  318,045
355,261;  346,453;  338,056;  342,165
355,340;  310,886;  303,845;  307,115
355,420;  345,353;  340,105;  342,305
355,499;  330,986;  322,975;  325,635
355,578;  318,419;  315,276;  316,885
355,658;  334,586;  332,875;  333,745
355,737;  324,886;  317,576;  319,005
355,816;  327,819;  323,276;  324,605
355,896;  325,652;  316,026;  321,355
355,975;  314,753;  307,355;  310,055
356,054;  309,419;  311,935;  312,455
356,133;  295,686;  290,565;  293,305
356,213;  326,919;  324,845;  324,825
356,292;  315,086;  304,016;  309,325
356,371;  316,219;  314,146;  314,035
356,451;  327,486;  324,755;  327,685
356,530;  359,386;  349,496;  350,795
356,609;  315,353;  311,146;  315,535
356,688;  325,019;  316,475;  316,165
356,767;  312,419;  304,695;  309,855
356,846;  327,319;  327,035;  327,235
356,926;  344,086;  340,016;  343,965
357,005;  324,753;  318,345;  318,565
357,084;  309,719;  304,466;  308,385
357,163;  321,886;  317,706;  317,185
357,242;  323,986;  320,146;  319,515
357,321;  318,519;  314,496;  316,575
357,400;  319,619;  321,236;  318,865
357,479;  329,552;  317,725;  320,795
357,559;  324,719;  321,405;  325,705
357,638;  302,652;  300,616;  298,815
357,717;  319,253;  313,746;  311,555
357,796;  335,853;  329,266;  330,875
357,875;  313,953;  314,466;  313,455
357,954;  317,286;  310,155;  313,855
358,033;  319,319;  323,405;  320,935
358,112;  331,186;  329,966;  328,315
358,191;  318,152;  315,276;  318,965
358,270;  299,953;  295,505;  297,695
358,349;  324,519;  321,625;  323,725
358,428;  328,586;  322,445;  326,125
358,507;  327,152;  321,366;  325,105
358,585;  332,819;  320,355;  325,525
358,664;  339,853;  332,266;  334,505
358,743;  329,052;  323,776;  326,515
358,822;  340,052;  334,475;  338,195
358,901;  313,586;  309,176;  309,505
358,980;  314,219;  310,885;  313,735
359,059;  334,319;  328,616;  332,255
359,138;  336,853;  329,415;  328,565
359,216;  323,086;  322,225;  327,485
359,295;  310,719;  309,475;  309,515
359,374;  333,886;  330,026;  333,455
359,453;  329,152;  316,345;  320,885
359,532;  313,052;  304,526;  308,455
359,610;  325,619;  319,556;  323,285
359,689;  341,219;  331,116;  333,025
359,768;  319,319;  313,706;  315,305
359,847;  306,219;  302,065;  305,385
359,925;  311,519;  304,105;  307,215
360,004;  307,619;  299,565;  302,585
360,083;  317,853;  320,165;  321,795
360,161;  314,953;  305,676;  309,885
360,240;  299,453;  288,725;  291,455
360,319;  316,353;  318,276;  317,225
360,397;  334,119;  324,986;  331,265
360,476;  325,086;  318,296;  324,355
360,555;  353,353;  345,565;  346,835
360,633;  305,319;  304,456;  304,945
360,712;  315,552;  309,056;  311,825
360,790;  328,652;  330,065;  331,185
360,869;  317,186;  310,266;  313,085
360,948;  320,386;  322,466;  322,235
361,026;  305,186;  300,065;  301,245
361,105;  313,219;  306,116;  309,875
361,183;  327,719;  324,725;  326,345
361,262;  308,652;  302,375;  307,465
361,340;  313,986;  305,815;  306,875
361,419;  291,919;  289,896;  290,845
361,497;  348,186;  340,926;  346,955
361,576;  317,986;  317,736;  323,245
361,654;  348,086;  342,736;  343,615
361,733;  302,486;  297,366;  297,305
361,811;  333,086;  329,065;  331,875
361,890;  297,086;  292,595;  293,595
361,968;  320,086;  313,706;  316,715
362,046;  340,152;  335,296;  335,795
362,125;  344,152;  337,435;  340,865
362,203;  320,286;  314,635;  316,745
362,282;  334,853;  328,676;  334,675
362,360;  322,786;  318,315;  323,125
362,438;  320,519;  313,565;  317,495
362,517;  367,219;  357,725;  357,035
362,595;  348,186;  340,956;  345,025
362,673;  345,152;  334,576;  338,035
362,752;  327,986;  326,366;  329,445
362,830;  346,019;  343,155;  338,795
362,908;  331,186;  322,885;  326,315
362,986;  341,319;  333,595;  334,645
363,065;  334,086;  326,405;  330,985
363,143;  363,519;  359,875;  363,525
363,221;  321,719;  313,755;  319,675
363,299;  323,319;  315,845;  315,595
363,378;  331,419;  327,546;  328,495
363,456;  310,353;  304,326;  305,295
363,534;  328,953;  323,996;  327,895
363,612;  334,453;  327,546;  330,285
363,690;  349,119;  337,885;  341,915
363,769;  361,652;  349,336;  354,965
363,847;  345,453;  332,326;  333,935
363,925;  310,586;  303,095;  306,775
364,003;  361,753;  350,866;  351,845
364,081;  347,219;  336,345;  339,765
364,159;  342,019;  331,836;  334,695
364,237;  350,819;  341,276;  343,025
364,315;  336,253;  318,866;  320,765
364,393;  361,686;  350,935;  355,465
364,471;  346,552;  328,185;  329,975
364,549;  356,619;  333,026;  334,495
364,627;  357,353;  323,095;  327,065
364,705;  370,052;  311,135;  310,945
364,783;  437,119;  323,496;  332,235
364,861;  985,519;  331,396;  334,915
364,939; 3524,186;  314,086;  319,855
365,017;  812,953;  306,046;  310,735
365,095;  378,353;  322,116;  324,495
365,173;  380,886;  345,556;  349,605
365,251;  389,086;  341,535;  344,665
365,329;  526,753;  346,466;  345,195
365,407; 1155,486;  318,345;  321,385
365,485;  473,152;  344,826;  348,395
365,563;  363,652;  344,306;  346,815
365,641;  339,586;  331,896;  331,005
365,719;  350,353;  337,095;  336,965
365,796;  345,819;  334,926;  336,075
365,874;  361,886;  347,426;  349,165
365,952;  330,786;  309,516;  312,925
366,030;  354,753;  334,866;  333,525
366,108;  369,853;  326,345;  328,575
366,185;  620,386;  338,396;  343,695
366,263;  877,419;  334,646;  340,035
366,341;  386,786;  334,125;  339,925
366,419;  347,686;  331,535;  331,355
366,496;  350,886;  342,655;  345,225
366,574;  334,753;  325,826;  329,315
366,652;  352,519;  345,296;  349,635
366,730;  375,353;  365,475;  368,065
366,807;  341,019;  330,845;  334,945
366,885;  331,086;  321,135;  327,175
366,963;  338,652;  329,016;  331,635
367,040;  357,919;  345,815;  352,465
367,118;  329,253;  321,875;  325,205
367,196;  351,586;  341,896;  344,715
367,273;  337,753;  335,845;  338,245
367,351;  337,819;  328,155;  331,125
367,428;  366,253;  355,016;  356,915
367,506;  341,886;  329,225;  333,905
367,584;  367,353;  360,216;  363,085
367,661;  346,353;  341,785;  346,585
367,739;  335,519;  328,466;  334,835
367,816;  333,419;  320,345;  324,175
367,894;  347,652;  339,146;  345,755
367,971;  342,586;  329,885;  333,335
368,049;  352,919;  349,586;  353,435
368,126;  320,353;  314,625;  317,265
368,204;  353,986;  351,836;  352,775
368,281;  357,286;  353,225;  355,775
368,359;  354,953;  348,806;  354,965
368,436;  351,652;  342,385;  348,785
368,514;  357,319;  349,646;  351,035
368,591;  341,353;  343,486;  348,405
368,668;  353,753;  347,486;  351,455
368,746;  366,552;  358,556;  362,125
368,823;  346,552;  342,405;  345,515
368,901;  347,652;  339,046;  341,025
368,978;  366,152;  354,975;  361,925
369,055;  343,619;  343,826;  347,145
369,133;  369,986;  367,046;  368,725
369,210;  346,052;  339,206;  342,185
369,287;  372,253;  367,986;  371,205
369,365;  375,953;  368,896;  369,715
369,442;  355,152;  346,826;  351,135
369,519;  315,986;  306,396;  310,475
369,596;  377,019;  369,005;  372,695
369,674;  339,919;  336,526;  336,705
369,751;  368,619;  368,005;  369,405
369,828;  360,286;  350,366;  351,255
369,905;  357,319;  354,796;  358,705
369,983;  336,819;  329,826;  336,485
370,060;  337,853;  335,185;  336,165
370,137;  378,853;  371,595;  373,975
370,214;  348,753;  340,246;  340,845
370,291;  354,186;  347,845;  351,965
370,368;  353,152;  345,426;  349,675
370,446;  335,886;  335,716;  337,375
370,523;  338,519;  331,586;  338,615
370,600;  359,953;  350,706;  356,355
370,677;  353,253;  345,826;  349,525
370,754;  351,319;  341,706;  344,655
370,831;  353,052;  344,885;  347,665
370,908;  373,953;  368,556;  369,945
370,985;  329,819;  326,206;  327,885
371,062;  346,486;  346,635;  347,955
371,139;  362,019;  362,125;  364,815
371,216;  365,186;  357,496;  359,475
371,293;  353,586;  350,576;  350,305
371,370;  331,152;  328,806;  332,395
371,447;  360,419;  354,736;  355,835
371,524;  380,652;  374,685;  378,505
371,601;  378,786;  371,556;  374,285
371,678;  376,919;  374,306;  375,345
371,755;  351,152;  348,526;  348,275
371,832;  371,453;  374,526;  377,175
371,909;  345,319;  342,065;  344,605
371,986;  384,186;  376,505;  379,065
372,063;  349,353;  346,195;  348,745
372,140;  354,319;  354,056;  357,495
372,216;  366,386;  360,225;  360,935
372,293;  346,453;  341,945;  344,805
372,370;  376,219;  370,236;  372,635
372,447;  362,853;  361,646;  361,385
372,524;  352,686;  349,725;  352,115
372,601;  356,819;  353,236;  356,005
372,677;  343,819;  339,586;  339,035
372,754;  349,419;  347,516;  350,955
372,831;  357,519;  354,716;  356,955
372,908;  371,486;  368,496;  364,795
372,984;  354,419;  349,246;  356,035
373,061;  343,652;  342,046;  342,845
373,138;  361,152;  349,986;  354,465
373,215;  344,986;  345,155;  346,585
373,291;  351,953;  347,556;  353,415
373,368;  356,886;  353,516;  357,375
373,445;  346,019;  348,285;  348,395
373,521;  353,386;  349,216;  353,935
373,598;  349,119;  341,766;  343,845
373,675;  340,686;  332,646;  334,115
373,751;  352,753;  345,375;  354,195
373,828;  347,519;  341,076;  346,375
373,904;  396,386;  387,225;  391,935
373,981;  334,953;  332,516;  333,585
374,057;  359,886;  353,306;  355,945
374,134;  335,052;  331,706;  334,435
374,211;  349,953;  348,826;  351,835
374,287;  343,119;  338,565;  339,035
374,364;  369,286;  362,426;  365,335
374,440;  328,186;  319,035;  321,205
374,517;  365,686;  361,625;  366,995
374,593;  333,386;  326,896;  326,865
374,670;  345,586;  340,095;  342,905
374,746;  353,319;  346,915;  349,135
374,823;  373,652;  369,255;  368,775
374,899;  375,753;  366,836;  366,475
374,975;  337,953;  336,035;  341,495
375,052;  327,786;  319,776;  326,175
375,128;  328,953;  325,956;  331,675
375,205;  354,619;  353,665;  355,605
375,281;  344,753;  337,296;  336,395
375,357;  372,253;  361,026;  364,245
375,434;  340,019;  331,986;  338,045
375,510;  356,319;  347,755;  353,175
375,586;  348,886;  347,486;  349,845
375,663;  327,719;  321,926;  323,515
375,739;  364,686;  355,716;  358,675
375,815;  346,986;  346,366;  346,765
375,892;  347,519;  344,516;  348,555
375,968;  340,419;  331,605;  336,855
376,044;  343,753;  335,866;  339,405
376,120;  337,819;  332,535;  339,615
376,197;  355,219;  348,466;  352,185
376,273;  346,686;  340,516;  341,095
376,349;  385,652;  378,366;  379,125
376,425;  368,152;  362,935;  364,425
376,501;  354,186;  344,225;  347,555
376,578;  364,219;  362,885;  363,255
376,654;  379,953;  383,866;  382,945
376,730;  361,652;  360,266;  364,005
376,806;  379,319;  375,185;  376,845
376,882;  379,319;  377,176;  378,355
376,958;  381,619;  376,706;  373,325
377,034;  326,619;  319,695;  317,895
377,111;  372,586;  368,826;  369,285
377,187;  393,819;  390,845;  391,825
377,263;  392,686;  383,885;  384,725
377,339;  351,886;  341,445;  346,375
377,415;  368,686;  366,366;  365,685
377,491;  352,953;  342,885;  347,505
377,567;  361,119;  359,755;  360,685
377,643;  384,919;  380,076;  378,785
377,719;  368,419;  363,706;  367,845
377,795;  351,353;  345,725;  349,165
377,871;  374,986;  367,866;  370,355
377,947;  356,253;  348,236;  351,215
378,023;  352,619;  345,855;  349,075
378,099;  352,919;  349,035;  350,465
378,174;  376,286;  374,176;  374,825
378,250;  376,486;  363,105;  366,955
378,326;  381,853;  366,255;  370,045
378,402;  361,319;  357,685;  360,315
378,478;  367,486;  361,605;  365,295
378,554;  374,486;  370,396;  375,075
378,630;  370,219;  365,225;  365,285
378,706;  359,953;  358,076;  357,335
378,781;  403,253;  390,875;  394,875
378,857;  367,986;  363,185;  366,505
378,933;  366,519;  360,315;  365,855
379,009;  358,419;  351,426;  351,035
379,085;  394,719;  393,826;  391,725
379,160;  385,719;  377,246;  378,485
379,236;  384,486;  374,195;  376,655
379,312;  365,686;  359,915;  361,725
379,387;  358,386;  354,486;  355,105
379,463;  363,019;  359,836;  363,685
379,539;  372,119;  370,475;  373,395
379,615;  363,886;  359,056;  358,495
379,690;  401,119;  395,035;  398,755
379,766;  381,119;  373,276;  379,335
379,842;  392,486;  391,105;  391,375
379,917;  386,453;  380,935;  388,225
379,993;  375,652;  368,366;  373,385
380,068;  362,819;  359,236;  361,755
380,144;  385,052;  381,086;  383,405
380,220;  388,552;  382,086;  386,535
380,295;  361,886;  353,005;  355,035
380,371;  363,986;  359,935;  361,545
380,446;  384,686;  377,165;  381,125
380,522;  351,552;  348,766;  349,425
380,597;  356,486;  360,486;  359,965
380,673;  399,819;  390,456;  394,425
380,748;  356,652;  358,046;  358,445
380,824;  371,853;  367,676;  369,935
380,899;  387,719;  386,216;  388,425
380,975;  369,819;  365,475;  366,905
381,050;  356,386;  352,806;  352,825
381,126;  377,853;  370,526;  373,695
381,201;  409,619;  398,806;  402,495
381,277;  380,086;  373,435;  374,795
381,352;  394,753;  388,105;  390,855
381,427;  378,119;  372,586;  376,025
381,503;  384,919;  378,896;  379,385
381,578;  365,652;  360,605;  365,515
381,653;  373,253;  368,776;  372,375
381,729;  361,519;  361,535;  360,945
381,804;  374,253;  367,475;  368,805
381,879;  388,486;  383,306;  386,055
381,955;  359,719;  354,396;  356,545
382,030;  357,652;  356,556;  357,225
382,105;  381,453;  375,586;  372,555
382,181;  377,119;  367,466;  371,255
382,256;  383,819;  378,116;  374,765
382,331;  369,319;  367,216;  371,745
382,406;  354,152;  353,266;  357,745
382,482;  362,219;  361,315;  357,655
382,557;  372,219;  363,526;  366,745
382,632;  378,152;  370,595;  371,585
382,707;  368,719;  361,135;  365,615
382,782;  363,853;  361,516;  366,275
382,857;  364,853;  358,996;  361,035
382,933;  348,486;  351,776;  352,995
383,008;  348,286;  344,065;  345,165
383,083;  385,886;  376,866;  379,215
383,158;  386,819;  378,866;  381,615
383,233;  368,419;  362,385;  363,105
383,308;  367,853;  359,875;  362,675
383,383;  393,386;  389,445;  391,785
383,458;  358,786;  361,135;  360,475
383,533;  349,486;  342,456;  344,625
383,608;  395,253;  387,885;  390,385
383,683;  387,919;  385,046;  389,585
383,758;  388,086;  380,285;  380,925
383,833;  374,919;  370,296;  371,015
383,908;  346,819;  343,206;  342,165
383,983;  354,652;  346,296;  350,755
384,058;  360,019;  355,246;  357,655
384,133;  365,786;  368,185;  368,575
384,208;  385,753;  376,796;  379,565
384,283;  351,519;  348,736;  351,825
384,358;  391,019;  381,845;  387,485
384,433;  360,686;  357,496;  357,355
384,508;  379,353;  368,966;  373,895
384,583;  377,819;  373,725;  375,265
384,658;  370,686;  367,915;  371,275
384,732;  342,486;  339,456;  339,705
384,807;  364,119;  366,935;  369,005
384,882;  381,119;  371,246;  373,145
384,957;  376,419;  368,095;  371,985
385,032;  381,419;  375,426;  376,555
385,106;  374,219;  370,216;  371,515
385,181;  356,886;  351,385;  357,155
385,256;  371,719;  363,565;  366,745
385,331;  373,586;  371,935;  373,255
385,405;  384,052;  380,975;  381,445
385,480;  368,986;  365,695;  366,715
385,555;  404,753;  399,306;  400,405
385,630;  397,086;  390,956;  395,935
385,704;  383,419;  374,056;  377,105
385,779;  367,419;  364,405;  364,855
385,854;  372,753;  368,746;  369,975
385,928;  361,152;  363,016;  365,315
386,003;  403,152;  402,586;  405,115
386,078;  377,919;  372,466;  374,995
386,152;  406,953;  401,456;  401,815
386,227;  363,119;  357,646;  361,225
386,301;  386,186;  378,725;  380,385
386,376;  354,386;  348,695;  355,015
386,450;  377,953;  378,616;  381,145
386,525;  375,152;  373,556;  377,655
386,600;  392,519;  385,746;  385,925
386,674;  370,886;  364,076;  367,315
386,749;  386,152;  375,095;  381,315
386,823;  381,052;  377,435;  382,095
386,898;  391,753;  379,766;  380,535
386,972;  384,619;  380,966;  385,985
387,047;  375,819;  369,776;  374,355
387,121;  388,253;  379,695;  380,335
387,195;  357,686;  357,875;  359,895
387,270;  386,619;  385,625;  385,415
387,344;  410,686;  404,405;  407,055
387,419;  395,386;  385,665;  393,195
387,493;  382,786;  377,776;  379,825
387,567;  359,919;  355,005;  358,475
387,642;  403,519;  403,586;  405,945
387,716;  371,619;  369,565;  372,245
387,790;  375,652;  367,706;  371,225
387,865;  377,486;  372,806;  373,715
387,939;  403,453;  403,005;  404,415
388,013;  389,286;  384,806;  386,145
388,088;  374,152;  368,655;  370,085
388,162;  374,686;  370,135;  371,835
388,236;  385,986;  372,456;  375,275
388,310;  367,519;  361,966;  364,475
388,385;  400,253;  397,185;  400,845
388,459;  379,786;  379,996;  380,235
388,533;  368,652;  363,676;  362,565
388,607;  365,719;  366,776;  365,955
388,682;  376,953;  374,806;  375,745
388,756;  359,152;  355,035;  360,825
388,830;  392,919;  390,255;  394,075
388,904;  385,719;  378,276;  385,365
388,978;  364,219;  369,535;  370,165
389,052;  381,353;  375,396;  377,225
389,126;  378,486;  370,435;  376,195
389,200;  384,819;  372,665;  377,205
389,275;  374,719;  369,266;  367,695
389,349;  374,019;  374,695;  373,065
389,423;  375,052;  369,565;  369,375
389,497;  391,953;  380,966;  383,775
389,571;  376,753;  368,665;  370,175
389,645;  375,953;  376,806;  379,805
389,719;  375,052;  369,396;  372,955
389,793;  347,353;  346,576;  348,725
389,867;  403,486;  398,035;  402,955
389,941;  384,552;  375,375;  377,215
390,015;  371,619;  361,135;  364,515
390,089;  369,052;  360,426;  362,085
390,163;  375,719;  372,456;  375,935
390,237;  387,386;  375,435;  379,295
390,310;  386,819;  379,276;  382,155
390,384;  387,019;  376,546;  383,625
390,458;  409,586;  400,826;  403,825
390,532;  391,886;  383,496;  386,725
390,606;  369,519;  365,945;  369,265
390,680;  373,886;  366,466;  368,115
390,754;  369,686;  366,385;  368,915
390,827;  398,719;  388,276;  392,645
390,901;  398,219;  391,855;  396,215
390,975;  375,319;  368,905;  370,295
391,049;  374,086;  366,366;  364,315
391,123;  363,753;  362,685;  363,545
391,196;  367,652;  367,635;  367,855
391,270;  377,886;  378,426;  377,835
391,344;  360,686;  360,056;  359,585
391,418;  374,986;  372,975;  372,155
391,491;  367,719;  362,655;  363,995
391,565;  366,686;  362,065;  366,105
391,639;  399,519;  394,345;  397,875
391,712;  392,286;  385,815;  384,375
391,786;  385,619;  382,646;  386,785
391,860;  373,686;  369,385;  370,925
391,933;  379,419;  369,935;  371,115
392,007;  377,219;  371,355;  380,875
392,081;  402,052;  396,456;  399,955
392,154;  384,186;  377,845;  383,895
392,228;  401,686;  391,366;  394,685
392,301;  384,486;  376,266;  381,275
392,375;  392,719;  386,076;  389,995
392,448;  389,119;  379,516;  384,445
392,522;  379,453;  376,236;  379,965
392,595;  378,353;  370,105;  374,245
392,669;  381,086;  376,116;  379,675
392,742;  394,453;  390,975;  396,915
392,816;  403,786;  397,296;  400,205
392,889;  405,186;  392,746;  396,605
392,963;  413,186;  409,095;  409,745
393,036;  393,586;  385,345;  386,785
393,110;  396,686;  391,155;  393,885
393,183;  413,119;  400,836;  405,685
393,257;  424,386;  415,456;  417,745
393,330;  374,286;  365,845;  369,745
393,403;  399,253;  390,486;  395,585
393,477;  359,552;  355,845;  358,875
393,550;  392,253;  390,306;  395,545
393,623;  397,453;  388,396;  388,295
393,697;  410,219;  406,056;  406,835
393,770;  389,286;  376,556;  379,065
393,843;  406,052;  402,996;  406,915
393,917;  403,419;  394,216;  398,485
393,990;  416,319;  409,996;  410,125
394,063;  402,152;  386,855;  392,225
394,136;  398,486;  388,635;  391,675
394,210;  393,886;  393,336;  395,655
394,283;  416,019;  402,785;  407,175
394,356;  404,719;  399,165;  399,175
394,429;  402,152;  396,935;  398,825
394,502;  395,219;  382,016;  383,895
394,576;  421,652;  414,125;  414,715
394,649;  388,986;  378,776;  377,865
394,722;  406,552;  400,896;  403,785
394,795;  418,652;  408,306;  413,185
394,868;  392,453;  384,135;  385,985
394,941;  383,919;  376,435;  375,265
395,014;  427,786;  417,056;  420,205
395,088;  409,219;  398,956;  399,175
395,161;  392,886;  395,466;  398,685
395,234;  418,786;  409,236;  410,735
395,307;  406,519;  402,236;  405,525
395,380;  391,353;  384,736;  385,325
395,453;  437,453;  436,845;  437,285
395,526;  413,186;  408,385;  412,495
395,599;  428,953;  426,926;  430,645
395,672;  395,419;  394,586;  394,895
395,745;  424,453;  417,125;  421,075
395,818;  379,819;  376,306;  378,615
395,891;  391,386;  385,635;  387,695
395,964;  418,552;  415,896;  414,885
396,036;  394,052;  387,486;  384,175
396,109;  397,786;  392,076;  395,785
396,182;  401,119;  396,766;  399,545
396,255;  403,953;  399,225;  398,845
396,328;  410,919;  410,065;  411,075
396,401;  377,919;  370,746;  371,295
396,474;  386,652;  381,086;  381,505
396,547;  403,753;  397,046;  400,645
396,619;  395,986;  390,755;  390,525
396,692;  412,286;  404,866;  411,355
396,765;  378,086;  370,616;  372,985
396,838;  396,253;  388,225;  388,295
396,911;  379,953;  371,266;  373,155
396,983;  401,652;  392,496;  392,385
397,056;  378,253;  372,355;  374,095
397,129;  391,386;  387,796;  389,615
397,201;  393,986;  391,556;  389,605
397,274;  388,019;  385,366;  389,335
397,347;  367,186;  363,345;  363,665
397,420;  391,453;  384,605;  387,195
397,492;  393,286;  388,296;  388,685
397,565;  379,086;  375,915;  379,595
397,637;  376,753;  369,366;  372,085
397,710;  358,386;  351,586;  350,295
397,783;  416,419;  412,855;  414,805
397,855;  356,019;  345,345;  347,055
397,928;  377,586;  368,336;  371,095
398,000;  398,186;  395,866;  396,635
398,073;  389,286;  386,546;  384,745
398,146;  375,086;  376,706;  377,295
398,218;  392,186;  390,255;  393,135
398,291;  392,886;  385,806;  387,915
398,363;  389,519;  381,755;  384,505
398,436;  378,853;  369,855;  374,675
398,508;  383,519;  383,266;  385,345
398,581;  381,019;  378,206;  380,565
398,653;  373,786;  374,255;  373,825
398,726;  381,486;  378,535;  383,385
398,798;  387,853;  383,306;  387,885
398,870;  398,219;  391,116;  396,905
398,943;  366,186;  366,236;  369,775
399,015;  369,919;  365,676;  368,815
399,088;  395,119;  389,655;  388,435
399,160;  375,953;  368,076;  368,815
399,232;  359,419;  350,405;  352,095
399,305;  374,019;  368,435;  372,935
399,377;  383,786;  377,905;  377,535
399,449;  391,186;  386,246;  388,735
399,522;  426,853;  421,875;  424,965
399,594;  369,953;  364,576;  365,315
399,666;  391,786;  382,625;  385,235
399,738;  378,286;  373,336;  375,225
399,811;  375,186;  376,736;  377,025
399,883;  396,786;  386,105;  388,295
399,955;  394,353;  389,855;  389,195
400,027;  348,386;  345,945;  349,545
400,100;  406,086;  407,366;  409,275
400,172;  351,486;  348,296;  349,645
400,244;  385,253;  378,225;  381,195
400,316;  392,953;  393,016;  393,505
400,388;  397,619;  389,385;  393,005
400,460;  364,086;  359,306;  364,605
400,532;  357,953;  350,826;  351,835
400,605;  383,386;  377,736;  384,975
400,677;  411,419;  402,285;  404,675
400,749;  401,486;  395,685;  398,125
400,821;  390,552;  385,956;  388,105
400,893;  381,219;  379,445;  382,305
400,965;  389,619;  386,755;  392,785
401,037;  389,219;  387,565;  392,525
401,109;  376,019;  370,725;  373,835
401,181;  381,819;  380,716;  385,485

