pru
Integration time [ms]:   0,150
Averaging Nr. [scans]: 10
Smoothing Nr. [pixels]: 0
Data measured with spectrometer [name]: 7416147SP
Wave   ;Sample   ;Dark     ;Reference
[nm]   ;[counts] ;[counts] ;[counts] 

230,218;  303,460;  290,315;  293,845
230,311;  314,960;  319,885;  318,565
230,404;  315,260;  309,855;  312,875
230,497;  318,760;  317,385;  315,715
230,591;  333,560;  333,426;  335,355
230,684;  327,360;  326,486;  329,355
230,777;  308,060;  311,736;  314,765
230,870;  314,460;  313,326;  316,955
230,964;  318,460;  310,885;  314,745
231,057;  336,760;  342,496;  343,475
231,150;  329,760;  331,695;  332,715
231,243;  329,160;  330,635;  332,775
231,336;  331,660;  331,375;  331,335
231,430;  317,660;  316,496;  317,715
231,523;  327,060;  324,516;  326,785
231,616;  299,460;  305,445;  309,685
231,709;  341,260;  328,065;  330,025
231,802;  313,360;  300,945;  301,885
231,895;  309,960;  299,836;  300,315
231,988;  323,560;  315,655;  318,535
232,082;  311,260;  298,155;  302,425
232,175;  313,060;  302,155;  306,175
232,268;  313,460;  301,266;  305,345
232,361;  321,760;  304,806;  307,515
232,454;  326,260;  322,396;  323,025
232,547;  337,060;  318,716;  322,655
232,640;  302,960;  296,766;  294,035
232,733;  314,660;  314,116;  323,045
232,826;  302,660;  288,915;  295,035
232,919;  322,060;  313,826;  312,665
233,012;  311,060;  293,646;  292,775
233,105;  302,860;  294,766;  298,815
233,199;  318,860;  299,875;  304,045
233,292;  313,260;  293,475;  296,235
233,385;  275,060;  263,426;  262,225
233,478;  303,460;  293,885;  295,685
233,571;  337,460;  324,586;  327,675
233,664;  319,160;  305,996;  308,435
233,757;  296,960;  280,796;  281,395
233,850;  294,660;  282,255;  285,825
233,943;  305,460;  290,896;  292,195
234,035;  308,460;  300,576;  302,355
234,128;  288,660;  281,836;  283,945
234,221;  302,860;  297,665;  298,245
234,314;  316,860;  304,915;  311,975
234,407;  319,060;  302,935;  309,075
234,500;  291,160;  277,625;  281,875
234,593;  301,960;  287,095;  285,735
234,686;  304,160;  293,746;  293,765
234,779;  304,160;  291,266;  293,165
234,872;  293,160;  281,806;  281,565
234,965;  302,660;  292,806;  290,795
235,058;  288,760;  274,155;  276,215
235,150;  300,560;  285,776;  290,805
235,243;  291,560;  282,736;  284,425
235,336;  321,760;  300,695;  304,545
235,429;  293,560;  273,646;  272,515
235,522;  340,960;  330,996;  335,445
235,615;  271,160;  262,276;  265,145
235,707;  292,260;  282,415;  282,335
235,800;  304,260;  289,815;  290,515
235,893;  301,560;  289,956;  292,955
235,986;  310,860;  298,266;  299,325
236,079;  292,260;  286,586;  291,125
236,171;  290,160;  270,725;  271,865
236,264;  325,560;  312,635;  313,275
236,357;  298,960;  290,986;  293,865
236,450;  324,360;  315,225;  317,215
236,542;  277,260;  267,065;  272,575
236,635;  332,860;  313,546;  316,385
236,728;  288,260;  285,516;  288,115
236,821;  296,760;  280,165;  283,715
236,913;  294,560;  277,896;  276,315
237,006;  279,660;  271,605;  275,435
237,099;  294,960;  283,896;  285,575
237,191;  319,160;  298,796;  300,225
237,284;  279,060;  267,896;  272,995
237,377;  307,560;  294,725;  297,495
237,470;  293,360;  285,415;  287,875
237,562;  297,360;  276,866;  275,785
237,655;  332,760;  320,945;  324,565
237,747;  302,060;  292,695;  295,845
237,840;  327,060;  313,086;  314,435
237,933;  312,360;  300,445;  301,555
238,025;  315,360;  301,415;  301,595
238,118;  299,160;  282,456;  287,755
238,211;  281,760;  268,155;  272,375
238,303;  277,660;  272,296;  273,415
238,396;  282,660;  268,065;  271,945
238,488;  301,160;  292,625;  291,075
238,581;  301,260;  287,855;  289,445
238,673;  306,060;  285,766;  286,865
238,766;  293,060;  282,635;  283,185
238,859;  278,860;  273,586;  276,105
238,951;  297,460;  281,095;  282,835
239,044;  300,360;  276,496;  279,525
239,136;  289,160;  269,035;  271,705
239,229;  292,960;  280,665;  283,435
239,321;  288,360;  271,255;  276,105
239,414;  310,360;  289,875;  292,345
239,506;  290,360;  284,625;  290,655
239,599;  317,460;  316,315;  315,935
239,691;  302,760;  287,945;  287,755
239,784;  319,460;  301,926;  304,175
239,876;  315,060;  295,005;  294,715
239,969;  311,760;  284,426;  288,635
240,061;  284,660;  269,505;  272,655
240,153;  292,460;  276,776;  278,405
240,246;  302,360;  287,635;  287,925
240,338;  327,660;  315,285;  314,405
240,431;  278,060;  268,896;  270,455
240,523;  284,360;  269,315;  270,665
240,615;  313,760;  299,086;  301,495
240,708;  314,160;  309,945;  312,145
240,800;  295,660;  286,956;  289,175
240,893;  285,160;  272,216;  274,965
240,985;  301,160;  286,116;  289,995
241,077;  284,860;  269,866;  271,905
241,170;  314,660;  300,355;  300,805
241,262;  301,260;  293,695;  290,825
241,354;  270,360;  252,305;  253,985
241,447;  291,560;  281,326;  283,905
241,539;  284,960;  266,746;  270,745
241,631;  335,260;  314,366;  317,275
241,724;  273,360;  259,135;  260,655
241,816;  298,660;  279,385;  281,545
241,908;  300,160;  275,056;  280,445
242,000;  277,760;  277,625;  279,505
242,093;  290,360;  277,725;  280,745
242,185;  293,760;  277,736;  277,535
242,277;  289,560;  274,695;  277,115
242,369;  299,360;  282,146;  286,335
242,462;  297,760;  274,405;  274,215
242,554;  295,760;  277,146;  281,105
242,646;  297,860;  283,146;  286,575
242,738;  319,060;  303,255;  307,195
242,830;  272,660;  259,026;  260,415
242,923;  307,760;  297,035;  299,015
243,015;  285,760;  268,655;  266,675
243,107;  286,960;  267,676;  271,255
243,199;  298,060;  276,345;  278,365
243,291;  291,260;  272,125;  276,215
243,383;  269,060;  254,826;  256,465
243,476;  280,060;  269,435;  268,005
243,568;  293,660;  280,915;  284,885
243,660;  284,060;  273,385;  279,575
243,752;  293,160;  279,796;  287,275
243,844;  311,660;  300,766;  302,705
243,936;  302,060;  291,956;  293,555
244,028;  313,360;  304,796;  307,475
244,120;  264,460;  254,346;  255,525
244,212;  294,360;  293,826;  293,755
244,305;  278,560;  268,496;  267,935
244,397;  295,160;  289,165;  291,675
244,489;  318,960;  304,276;  307,925
244,581;  310,360;  299,255;  300,795
244,673;  293,260;  281,806;  283,225
244,765;  305,660;  286,035;  290,565
244,857;  295,660;  284,986;  287,335
244,949;  301,860;  283,956;  284,945
245,041;  260,660;  250,865;  255,005
245,133;  299,060;  293,695;  296,625
245,225;  286,060;  277,915;  280,695
245,317;  303,260;  289,456;  289,025
245,409;  283,660;  263,755;  269,375
245,501;  304,160;  288,496;  293,045
245,593;  311,760;  286,255;  290,055
245,685;  299,760;  285,405;  288,735
245,776;  288,660;  285,945;  287,235
245,868;  280,760;  271,276;  272,565
245,960;  265,560;  265,875;  263,405
246,052;  325,560;  310,766;  310,445
246,144;  310,160;  294,165;  294,205
246,236;  298,860;  283,576;  283,565
246,328;  301,160;  291,345;  293,965
246,420;  290,460;  279,746;  280,855
246,512;  325,360;  308,236;  310,455
246,604;  291,760;  282,526;  286,825
246,695;  277,060;  273,345;  272,135
246,787;  311,660;  293,526;  301,145
246,879;  306,260;  292,716;  297,145
246,971;  303,160;  299,276;  300,965
247,063;  288,960;  273,255;  278,605
247,155;  308,160;  294,516;  297,195
247,246;  296,760;  283,266;  283,715
247,338;  302,760;  288,116;  294,265
247,430;  309,760;  299,945;  303,475
247,522;  321,460;  297,546;  300,555
247,613;  321,260;  296,586;  299,675
247,705;  302,860;  286,896;  288,445
247,797;  333,460;  305,776;  307,475
247,889;  315,360;  294,706;  295,475
247,980;  318,560;  285,676;  291,995
248,072;  333,260;  282,845;  285,895
248,164;  342,960;  293,216;  298,385
248,256;  297,460;  271,366;  274,105
248,347;  324,560;  309,785;  311,065
248,439;  296,460;  283,165;  282,675
248,531;  314,660;  303,885;  304,835
248,622;  319,960;  307,206;  308,325
248,714;  289,360;  276,945;  278,365
248,806;  299,260;  293,655;  298,015
248,897;  303,060;  291,535;  292,985
248,989;  285,260;  263,956;  263,855
249,081;  293,460;  283,355;  284,905
249,172;  310,060;  289,926;  295,135
249,264;  288,360;  272,076;  273,435
249,356;  292,960;  269,326;  273,745
249,447;  302,160;  282,176;  284,525
249,539;  292,860;  283,086;  284,645
249,630;  309,460;  289,875;  288,495
249,722;  337,460;  313,276;  315,395
249,813;  296,960;  280,496;  284,125
249,905;  320,060;  289,426;  293,665
249,997;  307,060;  281,445;  280,615
250,088;  306,560;  282,255;  288,985
250,180;  296,960;  283,695;  284,575
250,271;  302,060;  281,195;  280,335
250,363;  343,060;  319,105;  320,755
250,454;  305,460;  273,035;  275,615
250,546;  310,960;  285,926;  289,415
250,637;  279,160;  264,445;  261,845
250,729;  295,860;  266,505;  269,555
250,820;  315,360;  289,915;  292,965
250,912;  287,860;  262,355;  267,085
251,003;  295,660;  278,396;  280,475
251,095;  302,760;  282,086;  284,555
251,186;  293,160;  271,415;  274,775
251,277;  298,460;  271,986;  275,265
251,369;  301,260;  275,975;  275,105
251,460;  304,460;  271,456;  273,815
251,552;  303,660;  278,475;  279,655
251,643;  308,460;  268,796;  267,375
251,735;  302,860;  265,246;  267,375
251,826;  287,060;  258,016;  263,245
251,917;  319,760;  278,035;  279,115
252,009;  320,760;  273,396;  275,605
252,100;  333,160;  281,426;  283,345
252,191;  346,860;  289,996;  292,015
252,283;  347,560;  265,095;  267,705
252,374;  354,460;  278,296;  278,375
252,465;  384,860;  295,405;  298,605
252,557;  390,660;  283,576;  286,365
252,648;  390,460;  265,146;  268,635
252,739;  433,360;  280,516;  282,125
252,831;  420,960;  270,836;  280,355
252,922;  446,660;  282,296;  280,045
253,013;  491,360;  273,956;  284,285
253,104;  544,360;  270,076;  270,335
253,196;  655,660;  271,366;  271,175
253,287;  819,760;  281,836;  277,135
253,378; 1167,260;  276,276;  277,975
253,469; 3749,060;  272,385;  276,445
253,561;20476,160;  273,496;  278,855
253,652;40219,160;  282,266;  280,015
253,743; 6562,560;  276,216;  280,985
253,834;  601,560;  259,146;  265,875
253,926;  480,860;  262,605;  267,485
254,017;  480,260;  284,236;  290,235
254,108;  447,860;  291,836;  290,565
254,199;  425,660;  285,326;  291,185
254,290;  434,160;  312,725;  313,865
254,381;  408,460;  287,076;  291,155
254,472;  398,760;  291,935;  300,495
254,564;  412,260;  312,766;  307,565
254,655;  387,960;  304,755;  308,105
254,746;  348,460;  264,896;  264,025
254,837;  375,460;  293,105;  298,435
254,928;  345,760;  266,836;  271,975
255,019;  361,560;  283,505;  286,805
255,110;  366,360;  300,165;  301,665
255,201;  346,360;  281,155;  287,655
255,292;  377,160;  312,706;  316,275
255,383;  346,860;  275,785;  275,725
255,474;  335,160;  273,306;  273,095
255,566;  349,160;  283,926;  286,645
255,657;  337,660;  298,556;  302,445
255,748;  312,860;  271,415;  278,125
255,839;  315,560;  280,695;  282,485
255,930;  326,260;  287,866;  289,735
256,021;  337,260;  298,845;  298,115
256,112;  321,460;  278,456;  278,735
256,203;  346,760;  311,866;  313,365
256,294;  326,860;  293,496;  299,575
256,384;  307,960;  270,565;  275,715
256,475;  314,660;  290,996;  294,595
256,566;  311,660;  281,246;  287,825
256,657;  305,260;  278,945;  278,915
256,748;  307,260;  281,285;  284,675
256,839;  292,960;  274,426;  273,555
256,930;  293,560;  279,165;  283,055
257,021;  320,660;  304,155;  306,465
257,112;  330,660;  304,926;  309,235
257,203;  281,560;  258,445;  259,825
257,294;  271,960;  254,465;  262,175
257,385;  304,660;  288,526;  294,205
257,475;  292,160;  279,135;  278,545
257,566;  304,560;  287,586;  292,255
257,657;  281,760;  269,595;  270,025
257,748;  291,260;  275,935;  276,095
257,839;  290,560;  287,915;  286,025
257,930;  298,960;  285,736;  290,395
258,020;  275,560;  269,716;  271,535
258,111;  283,460;  262,225;  263,255
258,202;  309,060;  288,326;  289,935
258,293;  297,960;  284,655;  285,305
258,384;  319,860;  305,595;  307,665
258,474;  302,460;  288,676;  291,995
258,565;  274,360;  271,635;  273,435
258,656;  305,060;  292,966;  295,145
258,747;  281,960;  271,475;  275,425
258,837;  284,060;  274,246;  273,695
258,928;  280,060;  275,785;  278,605
259,019;  275,960;  268,415;  270,595
259,109;  280,260;  269,685;  269,425
259,200;  294,760;  286,105;  289,815
259,291;  281,860;  269,975;  271,655
259,381;  308,360;  293,026;  295,635
259,472;  305,160;  295,796;  296,545
259,563;  314,760;  303,065;  305,845
259,653;  289,060;  278,296;  281,385
259,744;  280,060;  268,826;  267,735
259,835;  315,360;  300,975;  302,815
259,925;  283,960;  271,505;  277,075
260,016;  305,460;  286,746;  287,585
260,107;  276,660;  258,035;  264,715
260,197;  298,060;  283,975;  286,325
260,288;  287,360;  274,565;  279,155
260,378;  277,560;  267,195;  271,275
260,469;  310,560;  285,915;  288,765
260,560;  277,560;  266,146;  269,495
260,650;  291,760;  271,736;  275,665
260,741;  293,860;  276,366;  279,035
260,831;  276,060;  272,855;  275,905
260,922;  281,160;  266,206;  269,545
261,012;  283,560;  277,665;  278,255
261,103;  313,360;  301,785;  302,875
261,193;  311,060;  302,086;  303,915
261,284;  272,260;  271,806;  273,005
261,374;  307,860;  296,385;  303,855
261,465;  302,560;  287,755;  289,435
261,555;  292,860;  282,255;  280,715
261,646;  304,260;  292,475;  294,375
261,736;  288,060;  287,435;  290,535
261,827;  288,160;  283,716;  284,935
261,917;  314,660;  311,736;  311,595
262,007;  294,160;  283,986;  288,075
262,098;  298,660;  289,445;  287,725
262,188;  347,860;  326,655;  333,475
262,279;  306,460;  300,185;  299,795
262,369;  298,860;  286,285;  289,225
262,459;  292,460;  288,246;  290,365
262,550;  299,560;  303,266;  301,565
262,640;  278,560;  273,005;  276,555
262,731;  299,860;  300,935;  299,335
262,821;  314,260;  310,535;  312,255
262,911;  314,160;  297,875;  298,285
263,002;  285,660;  289,625;  290,825
263,092;  315,660;  303,956;  306,295
263,182;  287,060;  284,806;  285,755
263,273;  286,660;  285,426;  289,395
263,363;  299,460;  300,746;  299,385
263,453;  266,260;  267,375;  268,605
263,543;  294,160;  289,815;  289,615
263,634;  278,960;  266,516;  266,365
263,724;  301,260;  292,586;  293,065
263,814;  326,260;  308,706;  308,885
263,904;  288,360;  281,966;  285,905
263,995;  330,060;  322,276;  322,325
264,085;  297,660;  295,855;  294,575
264,175;  298,960;  296,706;  296,385
264,265;  326,660;  321,105;  321,865
264,356;  274,960;  270,466;  274,385
264,446;  309,560;  308,996;  307,575
264,536;  296,860;  294,026;  297,515
264,626;  325,060;  318,486;  320,175
264,716;  304,560;  298,435;  303,275
264,806;  320,460;  308,776;  310,415
264,897;  260,160;  258,135;  258,615
264,987;  311,560;  303,535;  304,475
265,077;  322,560;  287,046;  292,545
265,167;  378,860;  310,216;  311,575
265,257;  339,160;  290,445;  290,535
265,347;  333,560;  294,336;  295,795
265,437;  317,160;  296,176;  300,635
265,527;  313,260;  293,155;  294,765
265,617;  280,860;  279,875;  285,145
265,708;  330,360;  314,216;  314,825
265,798;  309,860;  305,415;  307,055
265,888;  303,160;  300,716;  305,545
265,978;  299,560;  294,496;  295,825
266,068;  315,960;  310,155;  315,855
266,158;  297,760;  294,005;  297,205
266,248;  277,160;  274,016;  276,865
266,338;  324,060;  313,035;  314,815
266,428;  310,760;  300,635;  302,655
266,518;  311,560;  311,405;  315,615
266,608;  298,460;  299,725;  294,215
266,698;  273,560;  273,586;  276,245
266,788;  272,960;  274,456;  277,745
266,878;  332,860;  325,776;  330,865
266,968;  320,360;  306,725;  309,425
267,058;  301,460;  297,375;  302,895
267,147;  293,260;  301,845;  302,905
267,237;  292,560;  291,815;  295,765
267,327;  289,960;  286,755;  287,895
267,417;  301,460;  301,225;  303,385
267,507;  294,860;  292,176;  294,215
267,597;  286,060;  282,026;  283,655
267,687;  289,960;  285,165;  287,755
267,777;  289,560;  283,986;  284,615
267,867;  315,460;  312,125;  312,585
267,956;  304,160;  302,466;  304,005
268,046;  312,660;  305,466;  310,865
268,136;  303,760;  296,875;  298,905
268,226;  285,960;  274,885;  274,965
268,316;  271,260;  280,766;  280,845
268,406;  287,560;  289,516;  287,595
268,495;  289,760;  284,415;  287,935
268,585;  305,360;  306,716;  309,605
268,675;  283,560;  284,336;  285,535
268,765;  295,760;  296,355;  300,115
268,854;  291,560;  285,935;  286,715
268,944;  295,360;  291,646;  293,805
269,034;  292,260;  283,986;  289,715
269,124;  291,560;  287,216;  290,705
269,213;  282,960;  286,336;  285,525
269,303;  289,060;  290,466;  288,585
269,393;  303,360;  299,845;  298,345
269,483;  302,260;  300,966;  302,735
269,572;  288,860;  282,875;  284,665
269,662;  291,460;  276,105;  283,315
269,752;  315,460;  312,736;  315,705
269,841;  277,160;  266,046;  269,455
269,931;  282,760;  281,586;  283,075
270,021;  307,060;  300,766;  304,675
270,110;  282,660;  285,695;  288,925
270,200;  294,160;  291,665;  299,445
270,289;  291,160;  280,785;  281,105
270,379;  302,360;  301,466;  302,775
270,469;  283,160;  290,556;  289,955
270,558;  311,660;  303,655;  302,185
270,648;  290,760;  282,785;  284,885
270,737;  296,760;  288,526;  291,525
270,827;  309,560;  310,185;  313,455
270,916;  288,960;  286,935;  289,915
271,006;  299,460;  293,475;  292,885
271,096;  319,760;  317,005;  317,215
271,185;  292,760;  289,896;  289,145
271,275;  305,360;  300,706;  303,575
271,364;  288,960;  281,535;  285,725
271,454;  314,260;  308,255;  315,275
271,543;  299,160;  296,935;  297,745
271,633;  293,860;  293,926;  292,835
271,722;  300,760;  292,255;  296,455
271,812;  298,260;  286,296;  289,275
271,901;  297,260;  292,326;  293,765
271,990;  302,360;  291,836;  290,915
272,080;  291,460;  290,635;  294,915
272,169;  301,360;  301,905;  302,555
272,259;  295,460;  293,225;  292,695
272,348;  304,260;  305,796;  308,535
272,438;  299,560;  296,935;  293,635
272,527;  303,460;  303,996;  304,365
272,616;  307,360;  301,866;  305,295
272,706;  328,360;  320,935;  323,195
272,795;  322,860;  314,076;  315,755
272,884;  303,560;  297,076;  299,515
272,974;  316,460;  317,975;  319,965
273,063;  344,760;  338,206;  337,765
273,152;  314,560;  310,306;  307,735
273,242;  331,060;  320,276;  324,915
273,331;  327,560;  319,315;  322,835
273,420;  313,860;  301,105;  310,255
273,510;  315,160;  307,355;  308,155
273,599;  304,060;  303,255;  306,195
273,688;  301,260;  302,605;  301,885
273,778;  288,660;  285,065;  287,095
273,867;  319,560;  320,266;  317,015
273,956;  307,160;  303,725;  303,805
274,045;  273,160;  273,966;  275,965
274,135;  307,260;  303,905;  305,375
274,224;  299,260;  286,516;  290,045
274,313;  315,160;  305,586;  307,745
274,402;  287,360;  284,796;  287,085
274,491;  314,360;  310,975;  312,995
274,581;  307,860;  301,415;  302,765
274,670;  292,960;  293,146;  294,385
274,759;  302,760;  299,405;  300,435
274,848;  292,960;  276,655;  279,925
274,937;  291,260;  289,945;  287,635
275,026;  292,860;  285,616;  287,835
275,116;  324,960;  316,415;  315,805
275,205;  291,960;  266,926;  271,135
275,294;  323,160;  302,315;  304,335
275,383;  313,460;  299,905;  297,985
275,472;  286,460;  290,005;  290,825
275,561;  297,260;  290,505;  290,285
275,650;  300,160;  306,046;  306,435
275,739;  294,260;  294,776;  297,985
275,828;  286,860;  274,635;  277,965
275,917;  311,060;  312,065;  306,825
276,006;  293,060;  295,426;  296,835
276,095;  302,260;  294,526;  298,665
276,184;  314,060;  309,556;  307,945
276,273;  317,560;  303,105;  304,505
276,362;  277,660;  275,896;  278,535
276,451;  297,860;  291,306;  291,915
276,540;  295,660;  295,896;  296,105
276,629;  281,760;  292,576;  293,225
276,718;  279,760;  270,695;  274,545
276,807;  276,860;  271,625;  274,825
276,896;  291,860;  280,526;  284,495
276,985;  294,260;  283,616;  289,365
277,074;  310,560;  299,105;  300,525
277,163;  296,260;  294,746;  299,085
277,252;  284,860;  279,646;  276,465
277,341;  291,260;  281,236;  289,265
277,430;  281,660;  276,845;  279,355
277,519;  303,860;  298,956;  301,695
277,608;  276,860;  266,546;  267,775
277,696;  273,160;  266,975;  269,445
277,785;  277,760;  284,095;  283,485
277,874;  302,460;  299,605;  296,795
277,963;  298,360;  288,155;  289,995
278,052;  268,160;  264,776;  265,525
278,141;  290,760;  288,415;  290,745
278,229;  298,460;  290,146;  291,935
278,318;  266,160;  268,236;  271,495
278,407;  293,160;  285,576;  285,935
278,496;  291,860;  289,915;  291,965
278,585;  302,460;  300,486;  302,275
278,673;  259,660;  263,836;  266,715
278,762;  279,160;  266,176;  270,485
278,851;  286,660;  285,496;  286,035
278,940;  294,460;  303,685;  303,305
279,028;  304,460;  296,306;  299,585
279,117;  288,360;  282,725;  286,655
279,206;  282,760;  279,475;  284,105
279,294;  280,660;  284,396;  286,665
279,383;  296,160;  286,646;  287,335
279,472;  300,760;  298,095;  298,295
279,561;  283,960;  283,355;  284,975
279,649;  316,660;  308,535;  308,935
279,738;  256,860;  255,566;  255,215
279,827;  313,760;  306,785;  308,805
279,915;  281,960;  275,285;  276,335
280,004;  285,760;  286,565;  288,905
280,092;  297,060;  305,236;  306,635
280,181;  288,260;  280,516;  282,605
280,270;  300,760;  277,866;  281,595
280,358;  300,760;  291,366;  288,915
280,447;  277,160;  261,415;  264,455
280,535;  279,060;  276,016;  275,945
280,624;  278,660;  274,185;  276,805
280,713;  280,460;  277,146;  283,385
280,801;  297,360;  293,116;  293,805
280,890;  295,760;  289,716;  295,475
280,978;  279,860;  280,755;  281,945
281,067;  267,860;  250,676;  255,865
281,155;  272,060;  274,855;  275,705
281,244;  323,360;  313,595;  316,445
281,332;  299,560;  290,845;  293,825
281,421;  273,160;  271,605;  273,675
281,509;  286,860;  284,646;  282,415
281,598;  266,460;  262,435;  263,765
281,686;  291,860;  290,776;  288,945
281,775;  289,760;  285,516;  290,815
281,863;  286,060;  278,016;  279,225
281,951;  282,060;  267,665;  270,735
282,040;  307,660;  300,315;  301,115
282,128;  304,660;  288,375;  294,235
282,217;  279,960;  265,926;  266,075
282,305;  295,060;  294,796;  294,045
282,393;  289,460;  286,505;  284,595
282,482;  282,860;  279,535;  283,255
282,570;  278,660;  266,945;  270,215
282,658;  297,060;  276,116;  277,715
282,747;  278,460;  265,026;  267,905
282,835;  308,860;  306,076;  309,035
282,923;  269,960;  264,655;  267,805
283,012;  305,060;  291,366;  296,345
283,100;  283,060;  269,185;  274,675
283,188;  274,260;  261,125;  262,525
283,277;  284,460;  284,336;  284,745
283,365;  270,460;  271,676;  278,375
283,453;  269,260;  264,755;  270,455
283,542;  294,860;  290,896;  293,765
283,630;  284,460;  276,195;  278,595
283,718;  277,060;  271,195;  274,365
283,806;  249,960;  241,706;  247,485
283,894;  280,360;  274,336;  274,395
283,983;  285,460;  282,165;  282,605
284,071;  294,560;  285,285;  291,495
284,159;  313,660;  309,125;  314,805
284,247;  297,160;  287,466;  288,555
284,335;  287,360;  286,935;  287,485
284,424;  291,660;  283,915;  288,465
284,512;  284,360;  283,475;  286,175
284,600;  292,160;  279,415;  280,145
284,688;  319,760;  312,815;  317,115
284,776;  293,560;  286,815;  287,745
284,864;  306,060;  302,125;  308,655
284,952;  291,560;  289,625;  289,025
285,041;  300,560;  298,255;  298,145
285,129;  295,660;  299,435;  302,445
285,217;  304,360;  300,056;  303,885
285,305;  326,960;  318,676;  319,885
285,393;  279,160;  275,776;  278,695
285,481;  300,760;  296,665;  298,405
285,569;  292,960;  282,966;  285,145
285,657;  295,360;  295,165;  296,255
285,745;  299,460;  292,655;  293,125
285,833;  301,260;  289,505;  293,165
285,921;  311,960;  298,116;  300,945
286,009;  292,760;  301,105;  303,655
286,097;  314,260;  298,236;  301,315
286,185;  283,860;  284,405;  284,795
286,273;  287,560;  283,415;  284,655
286,361;  317,560;  307,915;  311,825
286,449;  292,560;  296,195;  294,565
286,537;  305,160;  304,105;  302,085
286,625;  288,060;  291,185;  293,415
286,713;  276,360;  275,806;  280,315
286,801;  313,260;  312,076;  307,795
286,889;  321,760;  319,435;  320,055
286,976;  291,960;  287,905;  291,205
287,064;  310,760;  307,635;  311,875
287,152;  302,560;  303,576;  305,585
287,240;  305,760;  309,185;  308,845
287,328;  281,260;  287,685;  281,755
287,416;  292,160;  290,975;  292,385
287,504;  297,360;  294,435;  298,285
287,591;  305,360;  298,176;  300,225
287,679;  294,460;  286,095;  286,145
287,767;  298,860;  298,206;  296,985
287,855;  311,960;  303,736;  307,515
287,943;  309,260;  306,716;  309,435
288,030;  300,560;  293,456;  291,795
288,118;  324,860;  318,255;  318,995
288,206;  281,160;  274,956;  275,705
288,294;  312,460;  301,986;  304,135
288,382;  311,060;  300,776;  303,615
288,469;  304,960;  304,396;  308,895
288,557;  294,060;  294,095;  292,615
288,645;  327,760;  323,396;  323,315
288,732;  280,860;  278,915;  279,235
288,820;  302,460;  304,576;  306,785
288,908;  308,960;  304,826;  303,915
288,995;  309,660;  310,945;  310,305
289,083;  301,760;  293,026;  292,935
289,171;  330,760;  320,165;  325,565
289,258;  360,260;  322,176;  324,305
289,346;  430,160;  326,266;  329,365
289,434;  317,160;  303,435;  306,185
289,521;  292,260;  280,415;  286,295
289,609;  325,660;  320,426;  325,405
289,697;  314,260;  312,336;  315,125
289,784;  303,560;  295,445;  295,775
289,872;  314,160;  306,905;  313,015
289,959;  279,660;  282,375;  283,415
290,047;  304,460;  296,546;  300,865
290,134;  274,860;  272,665;  273,815
290,222;  313,260;  308,915;  308,665
290,310;  313,960;  304,905;  307,145
290,397;  326,360;  328,505;  332,835
290,485;  303,160;  290,815;  293,005
290,572;  307,860;  313,225;  314,645
290,660;  316,260;  306,385;  306,205
290,747;  295,960;  295,165;  292,775
290,835;  305,360;  299,016;  302,505
290,922;  303,760;  304,016;  305,515
291,009;  306,260;  297,676;  301,715
291,097;  298,760;  297,926;  300,755
291,184;  333,360;  332,716;  338,585
291,272;  291,960;  282,966;  288,375
291,359;  282,960;  283,915;  289,305
291,447;  305,560;  303,086;  304,735
291,534;  324,460;  327,326;  323,005
291,621;  302,860;  302,845;  301,105
291,709;  284,660;  285,716;  283,705
291,796;  319,660;  320,146;  316,555
291,884;  297,760;  291,466;  296,115
291,971;  320,860;  315,065;  320,295
292,058;  283,860;  288,725;  288,985
292,146;  299,360;  293,746;  297,955
292,233;  286,260;  285,426;  284,765
292,320;  296,460;  294,306;  297,685
292,408;  321,460;  309,086;  308,565
292,495;  301,460;  290,565;  293,085
292,582;  294,260;  286,845;  287,375
292,669;  286,760;  281,415;  286,055
292,757;  289,660;  282,176;  283,865
292,844;  312,260;  312,935;  313,175
292,931;  281,660;  275,176;  277,485
293,018;  300,560;  291,516;  289,915
293,106;  305,560;  299,966;  303,035
293,193;  268,060;  272,415;  274,385
293,280;  302,760;  297,255;  303,635
293,367;  287,160;  296,956;  295,215
293,455;  302,060;  293,185;  294,155
293,542;  279,060;  275,695;  281,445
293,629;  274,060;  279,035;  281,855
293,716;  307,960;  305,646;  311,195
293,803;  286,860;  287,105;  287,695
293,890;  317,760;  310,336;  312,555
293,978;  289,960;  284,105;  290,755
294,065;  293,960;  286,725;  284,345
294,152;  296,760;  302,385;  304,355
294,239;  274,360;  275,646;  274,625
294,326;  288,060;  286,746;  290,635
294,413;  280,760;  278,046;  278,465
294,500;  297,360;  292,586;  295,255
294,587;  296,860;  283,915;  287,195
294,674;  304,760;  305,875;  306,925
294,761;  292,760;  288,896;  287,945
294,848;  298,260;  286,866;  294,115
294,935;  293,260;  290,746;  290,555
295,022;  273,260;  272,396;  274,105
295,109;  268,760;  258,466;  262,665
295,196;  297,560;  291,405;  295,265
295,283;  280,760;  281,176;  278,745
295,370;  309,160;  308,975;  312,155
295,457;  289,860;  289,986;  290,435
295,544;  289,260;  285,105;  287,985
295,631;  299,660;  290,165;  295,805
295,718;  270,960;  272,676;  274,015
295,805;  310,860;  296,225;  296,685
295,892;  310,360;  300,005;  304,445
295,979;  288,460;  291,266;  292,755
296,066;  304,160;  293,996;  296,145
296,153;  302,960;  296,026;  296,355
296,240;  317,060;  299,206;  300,535
296,327;  304,560;  285,206;  285,615
296,413;  323,960;  301,285;  305,075
296,500;  334,560;  302,755;  305,145
296,587;  516,960;  288,616;  286,065
296,674; 1602,160;  294,396;  297,335
296,761;  831,160;  300,095;  298,245
296,848;  302,860;  281,956;  285,815
296,934;  316,260;  290,966;  295,265
297,021;  296,860;  292,565;  292,975
297,108;  295,660;  276,366;  280,895
297,195;  293,460;  291,466;  294,705
297,282;  293,560;  286,535;  286,195
297,368;  310,860;  310,026;  305,975
297,455;  282,460;  279,155;  283,145
297,542;  319,860;  311,375;  313,235
297,629;  305,060;  299,016;  300,205
297,715;  317,960;  308,285;  310,385
297,802;  300,260;  300,466;  303,285
297,889;  312,860;  311,716;  313,025
297,975;  331,460;  322,836;  323,685
298,062;  315,960;  310,505;  312,995
298,149;  286,360;  273,505;  274,905
298,235;  293,560;  291,135;  294,075
298,322;  292,960;  294,806;  292,785
298,409;  312,260;  311,195;  312,715
298,495;  285,960;  285,435;  283,435
298,582;  322,560;  307,516;  308,065
298,669;  308,160;  290,526;  294,245
298,755;  301,860;  299,065;  302,235
298,842;  320,060;  304,755;  309,095
298,928;  299,660;  303,855;  304,595
299,015;  299,560;  294,896;  296,705
299,102;  326,560;  318,986;  320,565
299,188;  311,860;  315,956;  316,045
299,275;  303,760;  309,926;  309,365
299,361;  268,760;  278,875;  281,665
299,448;  308,660;  312,466;  310,885
299,534;  312,160;  312,355;  312,735
299,621;  306,260;  304,655;  303,865
299,707;  302,160;  299,016;  304,675
299,794;  323,960;  319,885;  319,685
299,880;  320,660;  317,076;  318,325
299,967;  295,860;  296,345;  296,295
300,053;  304,260;  295,935;  299,065
300,140;  330,260;  323,086;  328,875
300,226;  318,360;  313,885;  313,595
300,312;  322,660;  307,276;  306,695
300,399;  305,960;  305,505;  308,465
300,485;  313,960;  297,776;  301,725
300,572;  282,260;  281,655;  281,655
300,658;  292,460;  297,216;  294,585
300,744;  309,460;  310,706;  311,315
300,831;  314,060;  313,595;  318,275
300,917;  324,660;  321,676;  320,915
301,004;  327,060;  311,556;  311,015
301,090;  281,160;  277,785;  280,095
301,176;  286,760;  284,255;  288,205
301,263;  312,760;  313,676;  314,925
301,349;  292,560;  289,475;  293,305
301,435;  282,560;  284,276;  285,095
301,521;  330,660;  314,625;  313,245
301,608;  314,260;  314,695;  315,515
301,694;  305,760;  297,896;  300,535
301,780;  309,760;  303,046;  298,285
301,867;  290,460;  280,836;  285,265
301,953;  306,460;  296,595;  301,165
302,039;  379,160;  295,116;  297,515
302,125;  534,260;  298,445;  304,125
302,211;  358,560;  332,926;  334,115
302,298;  337,060;  301,926;  305,295
302,384;  296,560;  281,116;  287,095
302,470;  297,360;  289,505;  291,305
302,556;  298,860;  301,935;  305,645
302,642;  294,260;  293,456;  295,155
302,729;  299,160;  289,306;  293,525
302,815;  309,160;  317,966;  319,775
302,901;  293,760;  296,475;  298,745
302,987;  312,460;  307,716;  308,245
303,073;  306,860;  304,185;  302,795
303,159;  295,660;  296,945;  298,695
303,245;  291,760;  284,336;  290,495
303,331;  285,960;  283,486;  286,455
303,417;  300,460;  294,556;  296,145
303,503;  319,460;  310,046;  312,155
303,590;  291,960;  289,146;  291,705
303,676;  294,460;  299,505;  300,385
303,762;  292,560;  287,185;  287,835
303,848;  317,260;  311,026;  312,055
303,934;  307,760;  304,915;  307,775
304,020;  307,560;  301,796;  304,745
304,106;  305,460;  309,975;  314,015
304,192;  295,460;  291,796;  296,765
304,278;  305,260;  302,896;  304,455
304,364;  325,960;  323,026;  324,755
304,450;  312,560;  301,496;  304,095
304,535;  302,060;  304,005;  304,245
304,621;  308,960;  301,565;  302,205
304,707;  303,460;  306,296;  307,635
304,793;  323,460;  318,625;  318,575
304,879;  309,060;  306,776;  310,585
304,965;  320,260;  312,845;  313,365
305,051;  307,660;  308,616;  311,355
305,137;  319,460;  318,146;  324,235
305,223;  289,860;  291,445;  293,725
305,309;  314,760;  313,496;  317,755
305,394;  313,060;  311,996;  311,465
305,480;  308,760;  299,426;  304,775
305,566;  308,960;  309,355;  310,525
305,652;  319,460;  313,605;  317,885
305,738;  352,660;  349,206;  353,435
305,824;  307,060;  316,016;  315,095
305,909;  321,160;  323,815;  325,155
305,995;  279,960;  289,595;  290,025
306,081;  344,660;  348,345;  350,435
306,167;  307,460;  303,966;  307,875
306,252;  328,060;  324,375;  325,505
306,338;  336,460;  331,366;  335,515
306,424;  302,960;  306,595;  307,415
306,510;  315,160;  316,105;  319,795
306,595;  326,060;  323,685;  322,125
306,681;  323,360;  316,926;  318,895
306,767;  317,260;  305,336;  309,425
306,852;  326,760;  328,255;  331,375
306,938;  328,760;  325,796;  325,905
307,024;  309,160;  302,875;  304,755
307,109;  336,760;  336,065;  338,965
307,195;  319,060;  316,326;  318,385
307,281;  323,560;  318,716;  318,575
307,366;  305,060;  313,345;  310,455
307,452;  321,960;  312,426;  316,335
307,537;  307,560;  296,776;  298,485
307,623;  285,060;  292,105;  296,985
307,709;  311,660;  309,885;  310,795
307,794;  289,260;  288,576;  291,835
307,880;  315,060;  320,236;  319,735
307,965;  311,160;  307,456;  307,525
308,051;  299,460;  297,195;  298,065
308,136;  296,460;  297,165;  296,745
308,222;  312,760;  300,366;  302,045
308,307;  297,060;  295,116;  296,645
308,393;  288,460;  295,535;  300,335
308,478;  319,360;  321,826;  318,975
308,564;  293,360;  295,516;  288,925
308,649;  304,460;  308,496;  308,295
308,735;  303,260;  294,155;  300,535
308,820;  324,160;  320,655;  319,455
308,906;  302,860;  291,625;  300,515
308,991;  328,960;  341,076;  338,375
309,076;  319,660;  319,336;  320,645
309,162;  281,560;  283,945;  283,805
309,247;  306,860;  309,945;  308,415
309,333;  294,260;  291,646;  297,855
309,418;  296,360;  298,665;  301,955
309,503;  299,960;  297,646;  300,235
309,589;  305,060;  303,725;  305,345
309,674;  287,260;  290,945;  289,235
309,759;  297,360;  303,315;  304,195
309,845;  320,460;  311,016;  312,415
309,930;  309,560;  305,966;  307,375
310,015;  283,560;  276,095;  276,835
310,101;  320,560;  315,616;  319,905
310,186;  281,760;  285,426;  288,565
310,271;  296,360;  297,296;  298,295
310,357;  295,560;  297,526;  296,455
310,442;  308,460;  302,445;  303,865
310,527;  309,360;  297,766;  301,125
310,612;  279,060;  278,195;  281,425
310,698;  318,760;  319,725;  321,135
310,783;  302,560;  301,176;  302,685
310,868;  295,860;  294,285;  295,125
310,953;  285,660;  284,165;  285,195
311,038;  308,460;  311,146;  310,075
311,124;  308,660;  294,635;  290,925
311,209;  277,360;  276,736;  277,355
311,294;  321,560;  310,206;  312,575
311,379;  271,460;  276,785;  277,345
311,464;  302,160;  297,405;  297,635
311,549;  290,260;  282,385;  284,505
311,634;  295,960;  290,396;  286,805
311,719;  318,960;  316,016;  315,415
311,805;  297,460;  289,266;  291,605
311,890;  299,560;  295,165;  295,925
311,975;  299,460;  281,526;  286,055
312,060;  300,760;  298,146;  302,435
312,145;  287,760;  277,586;  276,025
312,230;  317,160;  290,815;  296,495
312,315;  332,260;  294,065;  296,045
312,400;  406,960;  296,396;  299,795
312,485; 1531,660;  290,535;  292,475
312,570; 1255,260;  277,125;  279,615
312,655;  344,560;  308,176;  313,325
312,740;  330,960;  301,616;  302,005
312,825;  334,460;  304,105;  307,725
312,910;  356,060;  307,736;  309,235
312,995;  442,960;  296,236;  298,245
313,080; 1912,460;  285,655;  286,805
313,165; 2197,860;  303,565;  305,305
313,250;  363,360;  287,276;  287,825
313,335;  324,160;  307,435;  312,125
313,419;  275,260;  267,466;  268,635
313,504;  313,660;  313,355;  315,225
313,589;  314,760;  295,216;  297,545
313,674;  315,560;  307,206;  310,085
313,759;  290,360;  281,556;  282,625
313,844;  297,460;  292,776;  291,005
313,929;  289,860;  289,945;  291,695
314,014;  317,560;  313,306;  315,005
314,098;  312,260;  299,035;  300,425
314,183;  269,460;  263,505;  263,795
314,268;  298,960;  296,496;  298,955
314,353;  314,260;  302,026;  306,185
314,438;  302,760;  306,905;  311,515
314,522;  301,760;  309,486;  308,535
314,607;  310,860;  307,565;  307,855
314,692;  301,360;  301,885;  303,855
314,777;  289,660;  291,766;  292,395
314,861;  277,560;  277,285;  276,385
314,946;  306,160;  315,116;  317,565
315,031;  296,160;  291,875;  294,115
315,115;  308,360;  306,206;  308,065
315,200;  314,860;  312,146;  313,065
315,285;  290,360;  289,486;  289,595
315,369;  285,060;  287,945;  288,545
315,454;  308,360;  311,905;  311,025
315,539;  309,260;  310,246;  307,795
315,623;  306,460;  309,426;  313,225
315,708;  337,660;  335,605;  336,825
315,793;  293,260;  297,986;  298,155
315,877;  296,560;  302,975;  305,445
315,962;  290,560;  289,105;  291,925
316,046;  314,360;  317,065;  319,225
316,131;  345,160;  334,516;  337,215
316,216;  315,160;  310,315;  310,785
316,300;  296,860;  303,345;  302,165
316,385;  325,760;  325,315;  324,305
316,469;  322,760;  330,625;  331,955
316,554;  305,760;  296,005;  298,425
316,638;  297,460;  296,725;  301,565
316,723;  291,860;  292,546;  293,795
316,807;  297,360;  299,595;  299,275
316,892;  297,260;  288,975;  289,925
316,976;  313,560;  314,405;  316,505
317,061;  297,660;  306,035;  305,965
317,145;  325,560;  327,655;  325,965
317,230;  313,260;  321,505;  319,905
317,314;  282,660;  275,565;  275,085
317,398;  306,260;  310,706;  312,245
317,483;  291,760;  290,026;  291,085
317,567;  318,260;  315,326;  317,865
317,652;  280,560;  283,526;  286,625
317,736;  307,660;  308,776;  309,285
317,820;  334,860;  329,005;  334,665
317,905;  310,660;  306,706;  307,035
317,989;  300,160;  298,285;  300,875
318,073;  300,360;  298,076;  297,705
318,158;  288,460;  284,966;  285,565
318,242;  296,960;  296,845;  299,095
318,326;  288,160;  283,155;  284,015
318,411;  287,460;  295,125;  296,565
318,495;  289,460;  285,776;  287,165
318,579;  285,260;  288,746;  289,305
318,664;  281,160;  280,315;  284,255
318,748;  306,360;  305,996;  310,145
318,832;  290,660;  290,806;  289,475
318,916;  266,660;  274,785;  277,335
319,001;  298,060;  299,945;  301,485
319,085;  299,260;  292,885;  290,905
319,169;  297,760;  293,396;  294,485
319,253;  286,860;  287,216;  285,525
319,337;  295,260;  306,246;  304,885
319,422;  321,960;  316,125;  313,225
319,506;  290,660;  283,326;  285,905
319,590;  313,860;  303,915;  305,525
319,674;  284,760;  291,926;  295,405
319,758;  295,860;  295,165;  300,215
319,842;  305,660;  306,135;  309,155
319,926;  292,260;  294,815;  295,205
320,010;  267,160;  267,046;  269,575
320,095;  283,360;  280,926;  284,685
320,179;  294,360;  279,125;  281,175
320,263;  278,960;  277,385;  285,805
320,347;  282,660;  271,296;  279,075
320,431;  277,660;  273,435;  274,355
320,515;  295,660;  296,375;  299,935
320,599;  274,460;  269,866;  273,825
320,683;  307,760;  305,706;  305,495
320,767;  269,060;  266,236;  266,205
320,851;  280,060;  281,855;  287,785
320,935;  314,760;  312,565;  318,275
321,019;  290,060;  292,975;  290,075
321,103;  278,960;  278,135;  280,585
321,187;  275,560;  273,165;  273,265
321,271;  292,360;  294,616;  296,825
321,355;  280,560;  281,595;  283,805
321,439;  298,360;  301,216;  301,725
321,523;  285,760;  282,266;  284,705
321,606;  288,760;  287,426;  288,215
321,690;  287,560;  287,026;  288,215
321,774;  299,660;  288,336;  292,205
321,858;  293,660;  292,966;  291,945
321,942;  298,260;  294,276;  298,975
322,026;  272,860;  283,315;  282,695
322,110;  283,360;  293,146;  295,755
322,194;  303,260;  295,355;  301,055
322,277;  297,260;  286,135;  287,285
322,361;  284,060;  278,595;  281,215
322,445;  297,160;  289,315;  291,095
322,529;  297,860;  297,716;  299,645
322,613;  299,960;  297,206;  297,795
322,696;  272,360;  267,695;  272,865
322,780;  282,360;  283,026;  283,485
322,864;  283,160;  272,625;  279,835
322,948;  306,260;  292,326;  295,965
323,031;  274,960;  281,565;  282,215
323,115;  283,460;  284,586;  285,215
323,199;  297,360;  296,565;  299,105
323,282;  312,960;  307,496;  310,065
323,366;  293,160;  287,296;  293,625
323,450;  279,960;  273,496;  275,835
323,533;  312,760;  314,576;  317,415
323,617;  269,660;  268,695;  271,585
323,701;  278,060;  281,105;  283,575
323,784;  297,860;  292,576;  294,205
323,868;  299,960;  297,866;  299,875
323,952;  287,660;  290,966;  294,175
324,035;  303,560;  305,926;  310,825
324,119;  306,160;  295,466;  298,455
324,202;  287,060;  286,836;  292,745
324,286;  294,060;  284,986;  286,605
324,370;  291,360;  293,105;  296,765
324,453;  301,260;  299,616;  301,745
324,537;  294,560;  294,426;  298,035
324,620;  286,060;  286,635;  291,765
324,704;  266,960;  270,445;  276,525
324,787;  295,460;  294,875;  296,265
324,871;  316,960;  310,986;  315,255
324,954;  313,860;  312,246;  315,985
325,038;  312,860;  306,466;  306,985
325,121;  306,160;  308,695;  312,075
325,205;  286,060;  290,396;  293,295
325,288;  282,960;  279,556;  285,675
325,371;  298,560;  298,945;  302,395
325,455;  320,060;  314,026;  312,045
325,538;  289,260;  281,516;  287,185
325,622;  334,060;  320,806;  321,295
325,705;  306,260;  297,716;  298,675
325,788;  323,560;  313,625;  316,645
325,872;  301,460;  300,796;  300,745
325,955;  325,760;  319,845;  325,065
326,039;  306,360;  309,576;  312,795
326,122;  315,660;  310,746;  311,665
326,205;  310,960;  311,806;  310,235
326,289;  316,960;  313,986;  319,245
326,372;  289,260;  294,746;  299,195
326,455;  321,460;  323,095;  324,405
326,538;  314,660;  312,336;  316,545
326,622;  321,460;  318,396;  320,075
326,705;  288,860;  287,315;  287,875
326,788;  320,660;  321,266;  322,405
326,871;  316,160;  315,576;  317,965
326,955;  326,160;  313,836;  315,225
327,038;  301,560;  310,116;  310,855
327,121;  315,460;  301,516;  307,855
327,204;  310,360;  313,216;  314,045
327,288;  336,560;  328,956;  332,375
327,371;  295,460;  288,185;  296,955
327,454;  313,660;  313,065;  313,845
327,537;  304,360;  299,815;  302,435
327,620;  328,860;  322,935;  330,145
327,703;  314,760;  309,076;  310,615
327,786;  307,660;  311,076;  312,115
327,870;  334,160;  323,155;  328,715
327,953;  311,360;  301,155;  305,785
328,036;  303,760;  293,105;  299,035
328,119;  331,160;  317,576;  321,135
328,202;  301,360;  301,885;  305,875
328,285;  329,460;  326,776;  329,015
328,368;  324,260;  320,935;  322,625
328,451;  312,760;  320,635;  322,565
328,534;  309,160;  301,266;  307,075
328,617;  311,760;  305,676;  311,785
328,700;  325,860;  326,505;  326,695
328,783;  326,460;  320,785;  322,875
328,866;  328,060;  314,095;  319,935
328,949;  324,460;  319,966;  326,555
329,032;  296,760;  297,826;  300,605
329,115;  302,960;  290,905;  295,945
329,198;  280,360;  282,956;  283,785
329,281;  297,260;  299,336;  298,465
329,364;  320,360;  316,246;  319,245
329,447;  303,360;  307,176;  309,255
329,530;  342,860;  328,155;  328,175
329,613;  300,860;  300,565;  306,725
329,696;  331,060;  326,806;  330,715
329,778;  313,160;  311,306;  316,915
329,861;  297,860;  295,236;  299,565
329,944;  327,160;  321,685;  327,225
330,027;  313,360;  311,576;  315,115
330,110;  310,460;  307,595;  311,705
330,193;  294,660;  295,306;  299,955
330,275;  314,160;  312,296;  315,835
330,358;  296,660;  291,776;  296,185
330,441;  328,660;  323,586;  325,365
330,524;  312,660;  305,216;  311,095
330,607;  304,660;  304,345;  306,905
330,689;  311,860;  313,105;  314,535
330,772;  315,560;  311,105;  312,425
330,855;  328,660;  325,065;  327,855
330,938;  321,060;  312,315;  321,275
331,020;  334,460;  317,176;  320,535
331,103;  289,860;  293,035;  294,505
331,186;  303,360;  305,146;  307,085
331,268;  290,760;  293,565;  298,695
331,351;  323,960;  313,026;  316,455
331,434;  313,460;  308,385;  312,645
331,516;  318,260;  319,076;  321,185
331,599;  298,460;  297,095;  301,425
331,682;  306,360;  310,736;  310,985
331,764;  298,460;  293,326;  297,915
331,847;  316,360;  313,716;  315,705
331,929;  293,960;  290,026;  293,225
332,012;  308,060;  309,625;  310,055
332,095;  329,560;  323,306;  326,625
332,177;  319,560;  320,806;  324,285
332,260;  326,160;  327,526;  328,035
332,342;  308,060;  309,246;  314,445
332,425;  315,760;  312,516;  311,505
332,507;  314,360;  308,526;  311,575
332,590;  290,460;  287,595;  291,655
332,672;  296,760;  294,885;  298,455
332,755;  305,360;  306,855;  311,605
332,837;  306,860;  310,716;  312,255
332,920;  312,960;  309,076;  315,155
333,002;  322,660;  325,676;  328,895
333,085;  312,260;  313,375;  315,165
333,167;  299,860;  296,875;  298,575
333,249;  297,860;  294,526;  298,145
333,332;  294,060;  293,296;  297,715
333,414;  306,860;  300,035;  304,875
333,497;  305,860;  300,255;  302,305
333,579;  299,760;  300,996;  306,375
333,661;  317,660;  319,706;  320,745
333,744;  297,560;  293,695;  297,125
333,826;  301,160;  305,766;  306,065
333,908;  319,960;  313,896;  316,665
333,991;  315,760;  291,266;  291,545
334,073;  462,660;  312,706;  318,525
334,155;  354,260;  304,086;  305,525
334,238;  321,560;  318,576;  326,145
334,320;  295,560;  297,046;  300,585
334,402;  321,160;  302,996;  304,895
334,485;  299,560;  303,655;  304,015
334,567;  298,160;  299,776;  301,975
334,649;  279,360;  278,426;  282,925
334,731;  315,760;  313,456;  317,305
334,813;  320,460;  315,605;  320,355
334,896;  299,560;  290,185;  294,595
334,978;  301,860;  309,165;  302,585
335,060;  303,160;  304,255;  304,235
335,142;  305,560;  301,665;  302,275
335,224;  313,160;  309,766;  311,745
335,307;  297,160;  297,456;  298,965
335,389;  314,460;  310,385;  317,305
335,471;  301,160;  299,896;  306,115
335,553;  308,460;  319,866;  318,905
335,635;  309,160;  312,836;  315,315
335,717;  303,260;  298,195;  300,145
335,799;  314,560;  322,695;  323,585
335,881;  279,260;  278,385;  282,845
335,963;  296,260;  291,796;  293,005
336,045;  298,160;  295,516;  301,085
336,128;  277,660;  270,945;  275,225
336,210;  285,260;  288,996;  292,295
336,292;  296,360;  297,845;  300,615
336,374;  306,360;  300,956;  306,155
336,456;  293,360;  285,616;  288,495
336,538;  305,960;  303,165;  304,435
336,620;  305,460;  310,576;  312,205
336,702;  295,360;  294,766;  294,235
336,783;  307,860;  302,556;  304,225
336,865;  302,460;  304,176;  305,725
336,947;  315,360;  308,486;  311,205
337,029;  280,060;  281,826;  282,945
337,111;  323,360;  316,266;  316,735
337,193;  290,060;  280,986;  284,795
337,275;  313,560;  310,815;  314,535
337,357;  326,260;  318,815;  324,805
337,439;  304,660;  305,255;  310,655
337,521;  280,260;  277,225;  280,915
337,602;  304,460;  298,435;  301,085
337,684;  313,260;  315,635;  317,455
337,766;  304,160;  312,266;  312,305
337,848;  296,960;  295,086;  301,025
337,930;  302,360;  303,165;  306,525
338,012;  300,160;  298,586;  299,555
338,093;  320,360;  312,396;  315,895
338,175;  317,460;  318,195;  321,575
338,257;  303,460;  306,945;  309,225
338,339;  298,160;  294,086;  300,165
338,420;  314,260;  310,986;  310,895
338,502;  294,960;  298,836;  304,265
338,584;  284,860;  286,736;  289,235
338,666;  304,960;  303,426;  302,365
338,747;  332,560;  330,806;  334,875
338,829;  299,960;  309,176;  309,265
338,911;  295,260;  296,236;  298,915
338,992;  288,660;  295,746;  294,435
339,074;  303,260;  306,155;  307,855
339,156;  293,660;  298,176;  303,395
339,237;  321,960;  325,035;  327,765
339,319;  298,060;  294,935;  300,045
339,400;  313,960;  309,065;  311,225
339,482;  273,560;  278,165;  280,605
339,564;  318,460;  317,026;  316,575
339,645;  302,660;  304,595;  308,105
339,727;  286,260;  290,216;  294,375
339,808;  321,360;  317,685;  322,555
339,890;  314,560;  299,956;  302,415
339,971;  309,660;  307,016;  315,055
340,053;  331,860;  336,746;  335,255
340,134;  305,360;  296,535;  298,415
340,216;  315,760;  315,556;  319,645
340,297;  302,260;  298,396;  301,525
340,379;  308,660;  314,736;  316,975
340,460;  310,060;  306,685;  306,615
340,542;  291,760;  294,535;  297,775
340,623;  307,460;  307,926;  312,435
340,705;  294,660;  297,516;  295,795
340,786;  284,660;  289,685;  291,925
340,868;  299,460;  308,826;  304,055
340,949;  290,360;  285,605;  286,145
341,030;  325,260;  321,435;  328,715
341,112;  275,160;  280,565;  284,075
341,193;  266,660;  270,135;  273,595
341,274;  322,160;  322,176;  320,965
341,356;  323,160;  320,716;  321,795
341,437;  289,460;  301,635;  300,825
341,518;  313,460;  307,176;  314,795
341,600;  326,460;  320,866;  322,465
341,681;  324,660;  328,866;  332,375
341,762;  329,760;  325,206;  323,705
341,844;  289,060;  287,146;  292,185
341,925;  307,960;  308,225;  311,205
342,006;  315,260;  320,426;  323,055
342,087;  291,960;  288,095;  292,095
342,169;  306,460;  307,026;  309,845
342,250;  282,860;  286,935;  285,935
342,331;  296,060;  298,706;  299,075
342,412;  311,360;  307,655;  310,045
342,493;  294,960;  289,415;  293,325
342,575;  322,660;  327,095;  327,355
342,656;  304,160;  318,466;  318,265
342,737;  330,060;  329,836;  330,295
342,818;  302,960;  307,996;  309,015
342,899;  314,260;  314,505;  317,165
342,980;  313,460;  306,695;  310,155
343,061;  303,060;  303,065;  304,715
343,143;  311,160;  319,535;  319,565
343,224;  312,560;  306,706;  305,915
343,305;  298,260;  299,625;  303,115
343,386;  298,860;  297,996;  300,475
343,467;  304,960;  303,155;  305,535
343,548;  305,060;  304,176;  305,935
343,629;  317,360;  316,405;  317,625
343,710;  333,860;  322,766;  321,015
343,791;  320,860;  325,065;  327,935
343,872;  302,660;  298,975;  297,795
343,953;  321,260;  314,826;  316,625
344,034;  333,160;  319,475;  324,485
344,115;  308,260;  304,255;  303,425
344,196;  302,060;  298,935;  302,165
344,277;  304,060;  293,306;  294,615
344,358;  307,160;  304,755;  307,345
344,439;  303,960;  293,975;  294,205
344,520;  297,660;  298,546;  300,975
344,601;  308,660;  314,646;  315,525
344,681;  305,860;  302,426;  303,825
344,762;  278,160;  283,466;  287,625
344,843;  274,260;  275,996;  281,125
344,924;  317,060;  303,635;  306,085
345,005;  283,260;  287,176;  288,725
345,086;  306,560;  307,665;  309,725
345,167;  294,260;  293,986;  295,575
345,247;  324,360;  323,896;  328,905
345,328;  323,960;  315,315;  317,705
345,409;  313,260;  307,056;  309,355
345,490;  317,060;  308,415;  314,245
345,571;  310,960;  304,875;  312,045
345,651;  283,260;  279,456;  279,055
345,732;  309,760;  307,285;  312,275
345,813;  309,060;  311,836;  317,355
345,894;  288,560;  285,785;  287,595
345,974;  310,160;  309,556;  311,845
346,055;  286,260;  296,435;  295,735
346,136;  304,260;  304,405;  306,245
346,216;  324,660;  324,945;  328,565
346,297;  308,960;  306,565;  304,225
346,378;  304,460;  291,996;  294,005
346,458;  313,860;  307,375;  313,405
346,539;  301,060;  302,306;  305,975
346,620;  315,160;  305,815;  306,685
346,700;  284,760;  288,755;  289,765
346,781;  288,460;  284,556;  286,765
346,861;  303,060;  304,336;  307,325
346,942;  297,160;  304,336;  302,715
347,023;  317,060;  317,885;  316,005
347,103;  295,160;  297,396;  302,825
347,184;  300,360;  294,475;  296,785
347,264;  292,260;  294,565;  296,805
347,345;  295,760;  290,526;  295,525
347,425;  285,360;  285,125;  290,565
347,506;  280,060;  283,595;  283,195
347,586;  291,260;  289,725;  292,435
347,667;  312,060;  307,616;  304,445
347,747;  312,760;  311,116;  310,775
347,828;  301,960;  296,486;  296,465
347,908;  304,260;  303,306;  307,175
347,988;  304,260;  298,655;  306,125
348,069;  307,060;  311,056;  311,395
348,149;  301,560;  303,956;  309,065
348,230;  309,560;  309,956;  310,945
348,310;  279,660;  284,185;  285,715
348,390;  289,660;  288,526;  288,625
348,471;  298,860;  303,665;  305,125
348,551;  293,560;  290,695;  293,935
348,632;  285,260;  289,505;  294,065
348,712;  283,560;  292,706;  295,115
348,792;  328,560;  329,836;  329,985
348,873;  289,660;  281,905;  283,045
348,953;  289,960;  289,845;  290,395
349,033;  300,160;  297,466;  299,465
349,113;  287,560;  286,076;  286,905
349,194;  292,760;  301,595;  304,825
349,274;  307,960;  304,796;  307,395
349,354;  306,860;  303,046;  308,435
349,434;  303,260;  300,116;  301,925
349,515;  321,660;  316,486;  322,185
349,595;  301,660;  302,206;  302,035
349,675;  306,960;  305,635;  308,015
349,755;  296,660;  296,746;  297,615
349,835;  306,860;  301,195;  307,695
349,916;  306,460;  298,435;  303,915
349,996;  285,860;  291,105;  291,745
350,076;  315,160;  312,375;  317,645
350,156;  285,260;  284,836;  287,665
350,236;  314,060;  314,116;  311,925
350,316;  302,260;  292,975;  295,765
350,396;  310,960;  305,646;  310,065
350,476;  293,460;  301,826;  304,275
350,556;  293,760;  293,966;  299,935
350,637;  322,360;  321,005;  321,825
350,717;  302,160;  288,445;  291,825
350,797;  290,360;  302,616;  305,905
350,877;  292,060;  289,875;  294,705
350,957;  305,360;  297,635;  300,095
351,037;  299,160;  298,556;  303,455
351,117;  294,260;  296,276;  296,555
351,197;  303,860;  303,366;  306,305
351,277;  297,660;  300,556;  301,575
351,357;  314,160;  308,806;  314,445
351,437;  303,860;  306,105;  307,755
351,516;  315,960;  317,986;  318,355
351,596;  293,560;  292,896;  296,025
351,676;  285,460;  290,405;  294,265
351,756;  327,960;  323,426;  326,135
351,836;  318,860;  313,866;  317,935
351,916;  300,560;  297,905;  298,975
351,996;  305,360;  303,996;  305,265
352,076;  295,460;  303,486;  303,085
352,156;  321,660;  319,556;  320,405
352,235;  301,160;  301,255;  300,955
352,315;  315,460;  312,456;  314,415
352,395;  305,560;  308,206;  309,425
352,475;  317,660;  315,405;  320,955
352,555;  337,560;  330,236;  330,635
352,634;  329,660;  321,956;  326,705
352,714;  305,760;  302,595;  304,055
352,794;  353,160;  354,466;  358,075
352,874;  322,160;  314,685;  317,555
352,953;  331,660;  337,676;  339,095
353,033;  331,260;  319,306;  320,925
353,113;  339,660;  332,135;  336,575
353,193;  327,760;  328,046;  329,935
353,272;  332,860;  333,135;  334,365
353,352;  314,560;  307,035;  311,285
353,432;  351,360;  343,005;  347,495
353,511;  322,560;  326,185;  330,665
353,591;  362,260;  361,616;  362,555
353,671;  332,260;  331,926;  333,015
353,750;  331,960;  332,296;  331,275
353,830;  307,560;  313,646;  317,015
353,909;  339,860;  339,836;  343,655
353,989;  322,160;  317,385;  320,255
354,069;  322,360;  319,456;  319,155
354,148;  342,060;  335,035;  339,585
354,228;  319,060;  315,695;  316,905
354,307;  333,660;  329,405;  332,345
354,387;  327,060;  322,095;  322,965
354,466;  315,060;  311,635;  316,045
354,546;  330,560;  335,135;  337,645
354,625;  322,260;  319,815;  320,355
354,705;  327,060;  324,246;  326,865
354,784;  322,860;  316,445;  318,195
354,864;  313,860;  316,635;  317,385
354,943;  334,860;  333,695;  339,105
355,023;  309,960;  310,996;  312,285
355,102;  352,860;  362,866;  363,435
355,181;  316,560;  315,966;  318,045
355,261;  345,860;  338,056;  342,165
355,340;  306,660;  303,845;  307,115
355,420;  344,060;  340,105;  342,305
355,499;  321,560;  322,975;  325,635
355,578;  315,660;  315,276;  316,885
355,658;  333,560;  332,875;  333,745
355,737;  324,760;  317,576;  319,005
355,816;  334,360;  323,276;  324,605
355,896;  319,360;  316,026;  321,355
355,975;  311,860;  307,355;  310,055
356,054;  319,060;  311,935;  312,455
356,133;  299,360;  290,565;  293,305
356,213;  331,160;  324,845;  324,825
356,292;  309,860;  304,016;  309,325
356,371;  327,760;  314,146;  314,035
356,451;  329,960;  324,755;  327,685
356,530;  353,460;  349,496;  350,795
356,609;  312,960;  311,146;  315,535
356,688;  316,160;  316,475;  316,165
356,767;  309,060;  304,695;  309,855
356,846;  330,360;  327,035;  327,235
356,926;  346,260;  340,016;  343,965
357,005;  315,060;  318,345;  318,565
357,084;  302,960;  304,466;  308,385
357,163;  317,860;  317,706;  317,185
357,242;  317,060;  320,146;  319,515
357,321;  321,560;  314,496;  316,575
357,400;  313,860;  321,236;  318,865
357,479;  322,160;  317,725;  320,795
357,559;  320,060;  321,405;  325,705
357,638;  311,160;  300,616;  298,815
357,717;  309,460;  313,746;  311,555
357,796;  328,460;  329,266;  330,875
357,875;  314,960;  314,466;  313,455
357,954;  316,860;  310,155;  313,855
358,033;  322,960;  323,405;  320,935
358,112;  329,560;  329,966;  328,315
358,191;  321,360;  315,276;  318,965
358,270;  289,960;  295,505;  297,695
358,349;  323,360;  321,625;  323,725
358,428;  325,360;  322,445;  326,125
358,507;  319,560;  321,366;  325,105
358,585;  326,960;  320,355;  325,525
358,664;  334,660;  332,266;  334,505
358,743;  319,560;  323,776;  326,515
358,822;  328,960;  334,475;  338,195
358,901;  302,760;  309,176;  309,505
358,980;  310,560;  310,885;  313,735
359,059;  323,560;  328,616;  332,255
359,138;  340,360;  329,415;  328,565
359,216;  327,460;  322,225;  327,485
359,295;  310,860;  309,475;  309,515
359,374;  327,660;  330,026;  333,455
359,453;  315,860;  316,345;  320,885
359,532;  301,160;  304,526;  308,455
359,610;  322,160;  319,556;  323,285
359,689;  332,960;  331,116;  333,025
359,768;  316,660;  313,706;  315,305
359,847;  301,760;  302,065;  305,385
359,925;  304,460;  304,105;  307,215
360,004;  308,160;  299,565;  302,585
360,083;  322,160;  320,165;  321,795
360,161;  311,960;  305,676;  309,885
360,240;  292,560;  288,725;  291,455
360,319;  311,160;  318,276;  317,225
360,397;  327,460;  324,986;  331,265
360,476;  317,560;  318,296;  324,355
360,555;  352,360;  345,565;  346,835
360,633;  303,660;  304,456;  304,945
360,712;  310,360;  309,056;  311,825
360,790;  328,160;  330,065;  331,185
360,869;  308,760;  310,266;  313,085
360,948;  328,660;  322,466;  322,235
361,026;  308,060;  300,065;  301,245
361,105;  311,660;  306,116;  309,875
361,183;  324,360;  324,725;  326,345
361,262;  302,260;  302,375;  307,465
361,340;  312,460;  305,815;  306,875
361,419;  291,860;  289,896;  290,845
361,497;  346,460;  340,926;  346,955
361,576;  321,160;  317,736;  323,245
361,654;  348,260;  342,736;  343,615
361,733;  296,660;  297,366;  297,305
361,811;  335,760;  329,065;  331,875
361,890;  293,260;  292,595;  293,595
361,968;  316,160;  313,706;  316,715
362,046;  338,960;  335,296;  335,795
362,125;  332,260;  337,435;  340,865
362,203;  310,760;  314,635;  316,745
362,282;  324,760;  328,676;  334,675
362,360;  322,560;  318,315;  323,125
362,438;  320,760;  313,565;  317,495
362,517;  356,760;  357,725;  357,035
362,595;  345,460;  340,956;  345,025
362,673;  337,860;  334,576;  338,035
362,752;  331,860;  326,366;  329,445
362,830;  347,060;  343,155;  338,795
362,908;  326,660;  322,885;  326,315
362,986;  338,160;  333,595;  334,645
363,065;  327,560;  326,405;  330,985
363,143;  363,260;  359,875;  363,525
363,221;  322,360;  313,755;  319,675
363,299;  306,660;  315,845;  315,595
363,378;  324,960;  327,546;  328,495
363,456;  303,160;  304,326;  305,295
363,534;  328,560;  323,996;  327,895
363,612;  331,160;  327,546;  330,285
363,690;  338,260;  337,885;  341,915
363,769;  353,360;  349,336;  354,965
363,847;  336,560;  332,326;  333,935
363,925;  307,960;  303,095;  306,775
364,003;  356,160;  350,866;  351,845
364,081;  339,860;  336,345;  339,765
364,159;  342,560;  331,836;  334,695
364,237;  348,160;  341,276;  343,025
364,315;  323,060;  318,866;  320,765
364,393;  351,260;  350,935;  355,465
364,471;  343,860;  328,185;  329,975
364,549;  347,360;  333,026;  334,495
364,627;  365,160;  323,095;  327,065
364,705;  362,860;  311,135;  310,945
364,783;  435,460;  323,496;  332,235
364,861;  977,960;  331,396;  334,915
364,939; 3535,560;  314,086;  319,855
365,017;  799,260;  306,046;  310,735
365,095;  371,260;  322,116;  324,495
365,173;  388,560;  345,556;  349,605
365,251;  381,260;  341,535;  344,665
365,329;  528,360;  346,466;  345,195
365,407; 1155,860;  318,345;  321,385
365,485;  462,360;  344,826;  348,395
365,563;  367,560;  344,306;  346,815
365,641;  343,460;  331,896;  331,005
365,719;  335,760;  337,095;  336,965
365,796;  346,260;  334,926;  336,075
365,874;  354,760;  347,426;  349,165
365,952;  320,960;  309,516;  312,925
366,030;  348,360;  334,866;  333,525
366,108;  360,460;  326,345;  328,575
366,185;  610,060;  338,396;  343,695
366,263;  862,060;  334,646;  340,035
366,341;  391,060;  334,125;  339,925
366,419;  344,760;  331,535;  331,355
366,496;  345,860;  342,655;  345,225
366,574;  329,960;  325,826;  329,315
366,652;  359,660;  345,296;  349,635
366,730;  368,960;  365,475;  368,065
366,807;  335,460;  330,845;  334,945
366,885;  327,560;  321,135;  327,175
366,963;  334,960;  329,016;  331,635
367,040;  359,460;  345,815;  352,465
367,118;  318,860;  321,875;  325,205
367,196;  355,660;  341,896;  344,715
367,273;  339,360;  335,845;  338,245
367,351;  331,560;  328,155;  331,125
367,428;  366,160;  355,016;  356,915
367,506;  331,060;  329,225;  333,905
367,584;  366,460;  360,216;  363,085
367,661;  352,560;  341,785;  346,585
367,739;  330,260;  328,466;  334,835
367,816;  321,660;  320,345;  324,175
367,894;  345,860;  339,146;  345,755
367,971;  339,660;  329,885;  333,335
368,049;  349,160;  349,586;  353,435
368,126;  321,060;  314,625;  317,265
368,204;  351,360;  351,836;  352,775
368,281;  352,060;  353,225;  355,775
368,359;  350,460;  348,806;  354,965
368,436;  341,660;  342,385;  348,785
368,514;  350,460;  349,646;  351,035
368,591;  354,660;  343,486;  348,405
368,668;  345,360;  347,486;  351,455
368,746;  366,160;  358,556;  362,125
368,823;  335,860;  342,405;  345,515
368,901;  340,460;  339,046;  341,025
368,978;  367,060;  354,975;  361,925
369,055;  349,060;  343,826;  347,145
369,133;  359,660;  367,046;  368,725
369,210;  336,460;  339,206;  342,185
369,287;  369,460;  367,986;  371,205
369,365;  370,360;  368,896;  369,715
369,442;  346,960;  346,826;  351,135
369,519;  304,160;  306,396;  310,475
369,596;  373,660;  369,005;  372,695
369,674;  338,160;  336,526;  336,705
369,751;  368,260;  368,005;  369,405
369,828;  349,760;  350,366;  351,255
369,905;  359,060;  354,796;  358,705
369,983;  333,860;  329,826;  336,485
370,060;  326,760;  335,185;  336,165
370,137;  378,260;  371,595;  373,975
370,214;  350,360;  340,246;  340,845
370,291;  347,360;  347,845;  351,965
370,368;  345,060;  345,426;  349,675
370,446;  342,660;  335,716;  337,375
370,523;  335,960;  331,586;  338,615
370,600;  351,860;  350,706;  356,355
370,677;  344,060;  345,826;  349,525
370,754;  342,960;  341,706;  344,655
370,831;  343,560;  344,885;  347,665
370,908;  377,160;  368,556;  369,945
370,985;  325,960;  326,206;  327,885
371,062;  341,260;  346,635;  347,955
371,139;  358,060;  362,125;  364,815
371,216;  358,460;  357,496;  359,475
371,293;  350,460;  350,576;  350,305
371,370;  328,360;  328,806;  332,395
371,447;  342,060;  354,736;  355,835
371,524;  370,260;  374,685;  378,505
371,601;  376,060;  371,556;  374,285
371,678;  376,760;  374,306;  375,345
371,755;  342,160;  348,526;  348,275
371,832;  378,360;  374,526;  377,175
371,909;  340,860;  342,065;  344,605
371,986;  380,560;  376,505;  379,065
372,063;  339,760;  346,195;  348,745
372,140;  361,860;  354,056;  357,495
372,216;  354,960;  360,225;  360,935
372,293;  339,760;  341,945;  344,805
372,370;  374,360;  370,236;  372,635
372,447;  352,760;  361,646;  361,385
372,524;  350,660;  349,725;  352,115
372,601;  355,860;  353,236;  356,005
372,677;  336,560;  339,586;  339,035
372,754;  342,860;  347,516;  350,955
372,831;  352,460;  354,716;  356,955
372,908;  363,860;  368,496;  364,795
372,984;  364,560;  349,246;  356,035
373,061;  339,060;  342,046;  342,845
373,138;  355,560;  349,986;  354,465
373,215;  347,760;  345,155;  346,585
373,291;  346,460;  347,556;  353,415
373,368;  357,860;  353,516;  357,375
373,445;  349,060;  348,285;  348,395
373,521;  351,260;  349,216;  353,935
373,598;  337,860;  341,766;  343,845
373,675;  336,160;  332,646;  334,115
373,751;  347,960;  345,375;  354,195
373,828;  350,360;  341,076;  346,375
373,904;  391,560;  387,225;  391,935
373,981;  335,160;  332,516;  333,585
374,057;  352,660;  353,306;  355,945
374,134;  327,760;  331,706;  334,435
374,211;  341,660;  348,826;  351,835
374,287;  334,260;  338,565;  339,035
374,364;  366,360;  362,426;  365,335
374,440;  328,960;  319,035;  321,205
374,517;  367,960;  361,625;  366,995
374,593;  332,860;  326,896;  326,865
374,670;  341,660;  340,095;  342,905
374,746;  353,760;  346,915;  349,135
374,823;  368,460;  369,255;  368,775
374,899;  363,760;  366,836;  366,475
374,975;  334,160;  336,035;  341,495
375,052;  317,660;  319,776;  326,175
375,128;  328,460;  325,956;  331,675
375,205;  348,760;  353,665;  355,605
375,281;  331,160;  337,296;  336,395
375,357;  364,460;  361,026;  364,245
375,434;  340,060;  331,986;  338,045
375,510;  350,260;  347,755;  353,175
375,586;  350,760;  347,486;  349,845
375,663;  320,160;  321,926;  323,515
375,739;  356,460;  355,716;  358,675
375,815;  346,360;  346,366;  346,765
375,892;  346,660;  344,516;  348,555
375,968;  342,160;  331,605;  336,855
376,044;  339,560;  335,866;  339,405
376,120;  334,260;  332,535;  339,615
376,197;  350,060;  348,466;  352,185
376,273;  351,260;  340,516;  341,095
376,349;  382,860;  378,366;  379,125
376,425;  375,760;  362,935;  364,425
376,501;  348,360;  344,225;  347,555
376,578;  364,860;  362,885;  363,255
376,654;  389,960;  383,866;  382,945
376,730;  358,760;  360,266;  364,005
376,806;  371,260;  375,185;  376,845
376,882;  369,560;  377,176;  378,355
376,958;  378,660;  376,706;  373,325
377,034;  321,960;  319,695;  317,895
377,111;  369,460;  368,826;  369,285
377,187;  391,060;  390,845;  391,825
377,263;  383,260;  383,885;  384,725
377,339;  345,660;  341,445;  346,375
377,415;  365,560;  366,366;  365,685
377,491;  348,560;  342,885;  347,505
377,567;  362,660;  359,755;  360,685
377,643;  384,260;  380,076;  378,785
377,719;  363,160;  363,706;  367,845
377,795;  348,560;  345,725;  349,165
377,871;  377,060;  367,866;  370,355
377,947;  347,260;  348,236;  351,215
378,023;  346,160;  345,855;  349,075
378,099;  348,060;  349,035;  350,465
378,174;  360,860;  374,176;  374,825
378,250;  360,160;  363,105;  366,955
378,326;  369,360;  366,255;  370,045
378,402;  357,160;  357,685;  360,315
378,478;  371,160;  361,605;  365,295
378,554;  363,960;  370,396;  375,075
378,630;  363,660;  365,225;  365,285
378,706;  362,260;  358,076;  357,335
378,781;  381,660;  390,875;  394,875
378,857;  369,560;  363,185;  366,505
378,933;  361,860;  360,315;  365,855
379,009;  350,760;  351,426;  351,035
379,085;  380,460;  393,826;  391,725
379,160;  377,060;  377,246;  378,485
379,236;  375,360;  374,195;  376,655
379,312;  372,860;  359,915;  361,725
379,387;  358,160;  354,486;  355,105
379,463;  358,860;  359,836;  363,685
379,539;  379,160;  370,475;  373,395
379,615;  352,660;  359,056;  358,495
379,690;  397,960;  395,035;  398,755
379,766;  376,560;  373,276;  379,335
379,842;  387,760;  391,105;  391,375
379,917;  373,960;  380,935;  388,225
379,993;  370,460;  368,366;  373,385
380,068;  362,060;  359,236;  361,755
380,144;  380,960;  381,086;  383,405
380,220;  380,960;  382,086;  386,535
380,295;  356,060;  353,005;  355,035
380,371;  364,660;  359,935;  361,545
380,446;  375,860;  377,165;  381,125
380,522;  346,460;  348,766;  349,425
380,597;  362,360;  360,486;  359,965
380,673;  388,860;  390,456;  394,425
380,748;  361,460;  358,046;  358,445
380,824;  372,160;  367,676;  369,935
380,899;  388,560;  386,216;  388,425
380,975;  362,160;  365,475;  366,905
381,050;  354,460;  352,806;  352,825
381,126;  372,460;  370,526;  373,695
381,201;  401,860;  398,806;  402,495
381,277;  362,860;  373,435;  374,795
381,352;  383,060;  388,105;  390,855
381,427;  368,760;  372,586;  376,025
381,503;  380,060;  378,896;  379,385
381,578;  358,760;  360,605;  365,515
381,653;  371,860;  368,776;  372,375
381,729;  358,660;  361,535;  360,945
381,804;  368,960;  367,475;  368,805
381,879;  384,260;  383,306;  386,055
381,955;  360,360;  354,396;  356,545
382,030;  356,460;  356,556;  357,225
382,105;  375,860;  375,586;  372,555
382,181;  368,360;  367,466;  371,255
382,256;  374,660;  378,116;  374,765
382,331;  371,960;  367,216;  371,745
382,406;  353,760;  353,266;  357,745
382,482;  357,960;  361,315;  357,655
382,557;  360,860;  363,526;  366,745
382,632;  373,660;  370,595;  371,585
382,707;  359,860;  361,135;  365,615
382,782;  364,460;  361,516;  366,275
382,857;  358,260;  358,996;  361,035
382,933;  352,360;  351,776;  352,995
383,008;  343,560;  344,065;  345,165
383,083;  383,260;  376,866;  379,215
383,158;  373,360;  378,866;  381,615
383,233;  366,060;  362,385;  363,105
383,308;  357,260;  359,875;  362,675
383,383;  391,760;  389,445;  391,785
383,458;  369,160;  361,135;  360,475
383,533;  343,760;  342,456;  344,625
383,608;  391,060;  387,885;  390,385
383,683;  391,060;  385,046;  389,585
383,758;  385,760;  380,285;  380,925
383,833;  363,760;  370,296;  371,015
383,908;  344,760;  343,206;  342,165
383,983;  354,660;  346,296;  350,755
384,058;  354,360;  355,246;  357,655
384,133;  373,060;  368,185;  368,575
384,208;  380,260;  376,796;  379,565
384,283;  344,860;  348,736;  351,825
384,358;  387,660;  381,845;  387,485
384,433;  362,360;  357,496;  357,355
384,508;  375,560;  368,966;  373,895
384,583;  367,060;  373,725;  375,265
384,658;  371,860;  367,915;  371,275
384,732;  339,760;  339,456;  339,705
384,807;  371,360;  366,935;  369,005
384,882;  368,260;  371,246;  373,145
384,957;  372,960;  368,095;  371,985
385,032;  369,760;  375,426;  376,555
385,106;  369,260;  370,216;  371,515
385,181;  347,860;  351,385;  357,155
385,256;  362,460;  363,565;  366,745
385,331;  372,860;  371,935;  373,255
385,405;  385,960;  380,975;  381,445
385,480;  362,460;  365,695;  366,715
385,555;  405,060;  399,306;  400,405
385,630;  400,260;  390,956;  395,935
385,704;  377,560;  374,056;  377,105
385,779;  365,260;  364,405;  364,855
385,854;  373,960;  368,746;  369,975
385,928;  358,460;  363,016;  365,315
386,003;  401,760;  402,586;  405,115
386,078;  366,460;  372,466;  374,995
386,152;  405,260;  401,456;  401,815
386,227;  355,360;  357,646;  361,225
386,301;  383,260;  378,725;  380,385
386,376;  356,560;  348,695;  355,015
386,450;  386,660;  378,616;  381,145
386,525;  371,160;  373,556;  377,655
386,600;  387,360;  385,746;  385,925
386,674;  373,360;  364,076;  367,315
386,749;  383,960;  375,095;  381,315
386,823;  383,460;  377,435;  382,095
386,898;  384,660;  379,766;  380,535
386,972;  385,360;  380,966;  385,985
387,047;  388,860;  369,776;  374,355
387,121;  379,760;  379,695;  380,335
387,195;  370,160;  357,875;  359,895
387,270;  386,460;  385,625;  385,415
387,344;  405,860;  404,405;  407,055
387,419;  384,960;  385,665;  393,195
387,493;  374,260;  377,776;  379,825
387,567;  354,260;  355,005;  358,475
387,642;  401,660;  403,586;  405,945
387,716;  373,460;  369,565;  372,245
387,790;  366,560;  367,706;  371,225
387,865;  372,360;  372,806;  373,715
387,939;  404,160;  403,005;  404,415
388,013;  382,060;  384,806;  386,145
388,088;  374,860;  368,655;  370,085
388,162;  375,060;  370,135;  371,835
388,236;  374,160;  372,456;  375,275
388,310;  358,460;  361,966;  364,475
388,385;  392,960;  397,185;  400,845
388,459;  370,860;  379,996;  380,235
388,533;  363,660;  363,676;  362,565
388,607;  364,560;  366,776;  365,955
388,682;  379,760;  374,806;  375,745
388,756;  361,660;  355,035;  360,825
388,830;  399,160;  390,255;  394,075
388,904;  389,560;  378,276;  385,365
388,978;  375,060;  369,535;  370,165
389,052;  383,360;  375,396;  377,225
389,126;  377,160;  370,435;  376,195
389,200;  372,760;  372,665;  377,205
389,275;  374,660;  369,266;  367,695
389,349;  368,560;  374,695;  373,065
389,423;  363,860;  369,565;  369,375
389,497;  385,860;  380,966;  383,775
389,571;  371,660;  368,665;  370,175
389,645;  386,660;  376,806;  379,805
389,719;  372,060;  369,396;  372,955
389,793;  333,860;  346,576;  348,725
389,867;  404,660;  398,035;  402,955
389,941;  375,360;  375,375;  377,215
390,015;  367,260;  361,135;  364,515
390,089;  358,660;  360,426;  362,085
390,163;  381,560;  372,456;  375,935
390,237;  378,560;  375,435;  379,295
390,310;  383,260;  379,276;  382,155
390,384;  383,760;  376,546;  383,625
390,458;  410,360;  400,826;  403,825
390,532;  392,960;  383,496;  386,725
390,606;  372,760;  365,945;  369,265
390,680;  365,960;  366,466;  368,115
390,754;  384,760;  366,385;  368,915
390,827;  392,260;  388,276;  392,645
390,901;  402,860;  391,855;  396,215
390,975;  373,360;  368,905;  370,295
391,049;  366,060;  366,366;  364,315
391,123;  355,560;  362,685;  363,545
391,196;  375,060;  367,635;  367,855
391,270;  379,360;  378,426;  377,835
391,344;  371,760;  360,056;  359,585
391,418;  380,960;  372,975;  372,155
391,491;  352,160;  362,655;  363,995
391,565;  364,460;  362,065;  366,105
391,639;  402,160;  394,345;  397,875
391,712;  388,560;  385,815;  384,375
391,786;  377,360;  382,646;  386,785
391,860;  372,060;  369,385;  370,925
391,933;  366,960;  369,935;  371,115
392,007;  369,960;  371,355;  380,875
392,081;  403,160;  396,456;  399,955
392,154;  385,260;  377,845;  383,895
392,228;  395,960;  391,366;  394,685
392,301;  378,160;  376,266;  381,275
392,375;  389,760;  386,076;  389,995
392,448;  382,260;  379,516;  384,445
392,522;  375,860;  376,236;  379,965
392,595;  371,360;  370,105;  374,245
392,669;  381,760;  376,116;  379,675
392,742;  396,660;  390,975;  396,915
392,816;  388,260;  397,296;  400,205
392,889;  403,860;  392,746;  396,605
392,963;  410,760;  409,095;  409,745
393,036;  395,460;  385,345;  386,785
393,110;  397,560;  391,155;  393,885
393,183;  410,460;  400,836;  405,685
393,257;  423,560;  415,456;  417,745
393,330;  368,760;  365,845;  369,745
393,403;  405,260;  390,486;  395,585
393,477;  364,860;  355,845;  358,875
393,550;  388,360;  390,306;  395,545
393,623;  401,960;  388,396;  388,295
393,697;  406,860;  406,056;  406,835
393,770;  384,460;  376,556;  379,065
393,843;  413,760;  402,996;  406,915
393,917;  404,160;  394,216;  398,485
393,990;  410,060;  409,996;  410,125
394,063;  401,860;  386,855;  392,225
394,136;  395,860;  388,635;  391,675
394,210;  394,760;  393,336;  395,655
394,283;  406,260;  402,785;  407,175
394,356;  403,960;  399,165;  399,175
394,429;  404,460;  396,935;  398,825
394,502;  379,260;  382,016;  383,895
394,576;  420,460;  414,125;  414,715
394,649;  381,760;  378,776;  377,865
394,722;  413,660;  400,896;  403,785
394,795;  411,460;  408,306;  413,185
394,868;  385,260;  384,135;  385,985
394,941;  376,360;  376,435;  375,265
395,014;  410,360;  417,056;  420,205
395,088;  396,260;  398,956;  399,175
395,161;  407,560;  395,466;  398,685
395,234;  412,260;  409,236;  410,735
395,307;  408,960;  402,236;  405,525
395,380;  396,460;  384,736;  385,325
395,453;  432,360;  436,845;  437,285
395,526;  412,460;  408,385;  412,495
395,599;  433,360;  426,926;  430,645
395,672;  393,060;  394,586;  394,895
395,745;  418,060;  417,125;  421,075
395,818;  382,260;  376,306;  378,615
395,891;  381,760;  385,635;  387,695
395,964;  417,660;  415,896;  414,885
396,036;  383,660;  387,486;  384,175
396,109;  395,560;  392,076;  395,785
396,182;  399,060;  396,766;  399,545
396,255;  400,860;  399,225;  398,845
396,328;  412,360;  410,065;  411,075
396,401;  376,160;  370,746;  371,295
396,474;  383,660;  381,086;  381,505
396,547;  402,460;  397,046;  400,645
396,619;  400,260;  390,755;  390,525
396,692;  410,760;  404,866;  411,355
396,765;  374,360;  370,616;  372,985
396,838;  389,260;  388,225;  388,295
396,911;  375,860;  371,266;  373,155
396,983;  392,060;  392,496;  392,385
397,056;  374,860;  372,355;  374,095
397,129;  395,260;  387,796;  389,615
397,201;  390,460;  391,556;  389,605
397,274;  388,460;  385,366;  389,335
397,347;  365,760;  363,345;  363,665
397,420;  390,260;  384,605;  387,195
397,492;  389,860;  388,296;  388,685
397,565;  376,360;  375,915;  379,595
397,637;  374,960;  369,366;  372,085
397,710;  350,360;  351,586;  350,295
397,783;  416,360;  412,855;  414,805
397,855;  355,160;  345,345;  347,055
397,928;  367,360;  368,336;  371,095
398,000;  403,060;  395,866;  396,635
398,073;  389,560;  386,546;  384,745
398,146;  384,060;  376,706;  377,295
398,218;  392,460;  390,255;  393,135
398,291;  390,260;  385,806;  387,915
398,363;  391,660;  381,755;  384,505
398,436;  369,760;  369,855;  374,675
398,508;  376,660;  383,266;  385,345
398,581;  376,460;  378,206;  380,565
398,653;  367,560;  374,255;  373,825
398,726;  373,160;  378,535;  383,385
398,798;  389,360;  383,306;  387,885
398,870;  391,160;  391,116;  396,905
398,943;  363,060;  366,236;  369,775
399,015;  369,560;  365,676;  368,815
399,088;  391,960;  389,655;  388,435
399,160;  370,560;  368,076;  368,815
399,232;  349,060;  350,405;  352,095
399,305;  374,060;  368,435;  372,935
399,377;  374,960;  377,905;  377,535
399,449;  394,160;  386,246;  388,735
399,522;  425,960;  421,875;  424,965
399,594;  368,860;  364,576;  365,315
399,666;  385,960;  382,625;  385,235
399,738;  369,260;  373,336;  375,225
399,811;  386,760;  376,736;  377,025
399,883;  399,060;  386,105;  388,295
399,955;  394,160;  389,855;  389,195
400,027;  344,260;  345,945;  349,545
400,100;  407,960;  407,366;  409,275
400,172;  346,760;  348,296;  349,645
400,244;  371,760;  378,225;  381,195
400,316;  396,860;  393,016;  393,505
400,388;  387,660;  389,385;  393,005
400,460;  363,560;  359,306;  364,605
400,532;  346,860;  350,826;  351,835
400,605;  377,360;  377,736;  384,975
400,677;  396,760;  402,285;  404,675
400,749;  392,260;  395,685;  398,125
400,821;  381,860;  385,956;  388,105
400,893;  378,860;  379,445;  382,305
400,965;  395,360;  386,755;  392,785
401,037;  388,060;  387,565;  392,525
401,109;  378,060;  370,725;  373,835
401,181;  382,260;  380,716;  385,485

