pru
Integration time [ms]:   0,150
Averaging Nr. [scans]: 10
Smoothing Nr. [pixels]: 0
Data measured with spectrometer [name]: 7416147SP
Wave   ;Sample   ;Dark     ;Reference
[nm]   ;[counts] ;[counts] ;[counts] 

230,218;  296,640;  290,315;  293,845
230,311;  321,040;  319,885;  318,565
230,404;  308,240;  309,855;  312,875
230,497;  324,940;  317,385;  315,715
230,591;  335,840;  333,426;  335,355
230,684;  325,940;  326,486;  329,355
230,777;  311,940;  311,736;  314,765
230,870;  320,140;  313,326;  316,955
230,964;  313,440;  310,885;  314,745
231,057;  334,440;  342,496;  343,475
231,150;  322,440;  331,695;  332,715
231,243;  339,140;  330,635;  332,775
231,336;  332,940;  331,375;  331,335
231,430;  316,740;  316,496;  317,715
231,523;  321,040;  324,516;  326,785
231,616;  313,340;  305,445;  309,685
231,709;  344,740;  328,065;  330,025
231,802;  327,740;  300,945;  301,885
231,895;  307,240;  299,836;  300,315
231,988;  334,040;  315,655;  318,535
232,082;  311,240;  298,155;  302,425
232,175;  316,240;  302,155;  306,175
232,268;  326,040;  301,266;  305,345
232,361;  312,240;  304,806;  307,515
232,454;  335,240;  322,396;  323,025
232,547;  339,840;  318,716;  322,655
232,640;  307,140;  296,766;  294,035
232,733;  329,040;  314,116;  323,045
232,826;  304,140;  288,915;  295,035
232,919;  326,040;  313,826;  312,665
233,012;  313,240;  293,646;  292,775
233,105;  321,040;  294,766;  298,815
233,199;  317,840;  299,875;  304,045
233,292;  306,240;  293,475;  296,235
233,385;  276,440;  263,426;  262,225
233,478;  306,240;  293,885;  295,685
233,571;  335,640;  324,586;  327,675
233,664;  326,940;  305,996;  308,435
233,757;  298,540;  280,796;  281,395
233,850;  296,440;  282,255;  285,825
233,943;  306,640;  290,896;  292,195
234,035;  318,240;  300,576;  302,355
234,128;  288,440;  281,836;  283,945
234,221;  317,340;  297,665;  298,245
234,314;  328,540;  304,915;  311,975
234,407;  327,940;  302,935;  309,075
234,500;  300,540;  277,625;  281,875
234,593;  303,340;  287,095;  285,735
234,686;  301,040;  293,746;  293,765
234,779;  307,140;  291,266;  293,165
234,872;  299,240;  281,806;  281,565
234,965;  308,640;  292,806;  290,795
235,058;  284,740;  274,155;  276,215
235,150;  314,040;  285,776;  290,805
235,243;  300,740;  282,736;  284,425
235,336;  316,940;  300,695;  304,545
235,429;  287,140;  273,646;  272,515
235,522;  346,940;  330,996;  335,445
235,615;  276,340;  262,276;  265,145
235,707;  302,440;  282,415;  282,335
235,800;  304,240;  289,815;  290,515
235,893;  300,340;  289,956;  292,955
235,986;  313,840;  298,266;  299,325
236,079;  305,440;  286,586;  291,125
236,171;  285,140;  270,725;  271,865
236,264;  333,040;  312,635;  313,275
236,357;  305,640;  290,986;  293,865
236,450;  328,640;  315,225;  317,215
236,542;  288,740;  267,065;  272,575
236,635;  332,740;  313,546;  316,385
236,728;  298,040;  285,516;  288,115
236,821;  289,540;  280,165;  283,715
236,913;  288,440;  277,896;  276,315
237,006;  289,340;  271,605;  275,435
237,099;  292,740;  283,896;  285,575
237,191;  315,340;  298,796;  300,225
237,284;  291,440;  267,896;  272,995
237,377;  304,740;  294,725;  297,495
237,470;  296,040;  285,415;  287,875
237,562;  292,140;  276,866;  275,785
237,655;  334,940;  320,945;  324,565
237,747;  309,040;  292,695;  295,845
237,840;  331,240;  313,086;  314,435
237,933;  310,940;  300,445;  301,555
238,025;  315,140;  301,415;  301,595
238,118;  299,340;  282,456;  287,755
238,211;  287,740;  268,155;  272,375
238,303;  286,540;  272,296;  273,415
238,396;  284,140;  268,065;  271,945
238,488;  299,440;  292,625;  291,075
238,581;  301,240;  287,855;  289,445
238,673;  294,440;  285,766;  286,865
238,766;  293,140;  282,635;  283,185
238,859;  285,340;  273,586;  276,105
238,951;  292,640;  281,095;  282,835
239,044;  296,840;  276,496;  279,525
239,136;  282,940;  269,035;  271,705
239,229;  289,840;  280,665;  283,435
239,321;  284,840;  271,255;  276,105
239,414;  306,140;  289,875;  292,345
239,506;  300,840;  284,625;  290,655
239,599;  332,840;  316,315;  315,935
239,691;  296,740;  287,945;  287,755
239,784;  317,940;  301,926;  304,175
239,876;  310,640;  295,005;  294,715
239,969;  303,940;  284,426;  288,635
240,061;  284,840;  269,505;  272,655
240,153;  293,040;  276,776;  278,405
240,246;  301,940;  287,635;  287,925
240,338;  334,740;  315,285;  314,405
240,431;  283,540;  268,896;  270,455
240,523;  285,040;  269,315;  270,665
240,615;  321,840;  299,086;  301,495
240,708;  327,040;  309,945;  312,145
240,800;  297,240;  286,956;  289,175
240,893;  282,640;  272,216;  274,965
240,985;  296,940;  286,116;  289,995
241,077;  286,840;  269,866;  271,905
241,170;  316,340;  300,355;  300,805
241,262;  306,540;  293,695;  290,825
241,354;  268,340;  252,305;  253,985
241,447;  298,140;  281,326;  283,905
241,539;  290,540;  266,746;  270,745
241,631;  335,940;  314,366;  317,275
241,724;  272,540;  259,135;  260,655
241,816;  297,640;  279,385;  281,545
241,908;  286,140;  275,056;  280,445
242,000;  293,140;  277,625;  279,505
242,093;  298,040;  277,725;  280,745
242,185;  291,940;  277,736;  277,535
242,277;  286,940;  274,695;  277,115
242,369;  305,040;  282,146;  286,335
242,462;  291,440;  274,405;  274,215
242,554;  296,040;  277,146;  281,105
242,646;  297,640;  283,146;  286,575
242,738;  326,040;  303,255;  307,195
242,830;  272,140;  259,026;  260,415
242,923;  317,340;  297,035;  299,015
243,015;  285,840;  268,655;  266,675
243,107;  283,140;  267,676;  271,255
243,199;  294,240;  276,345;  278,365
243,291;  298,940;  272,125;  276,215
243,383;  270,840;  254,826;  256,465
243,476;  284,340;  269,435;  268,005
243,568;  297,740;  280,915;  284,885
243,660;  289,140;  273,385;  279,575
243,752;  303,340;  279,796;  287,275
243,844;  312,440;  300,766;  302,705
243,936;  307,540;  291,956;  293,555
244,028;  315,140;  304,796;  307,475
244,120;  268,140;  254,346;  255,525
244,212;  301,340;  293,826;  293,755
244,305;  275,140;  268,496;  267,935
244,397;  301,740;  289,165;  291,675
244,489;  320,240;  304,276;  307,925
244,581;  310,840;  299,255;  300,795
244,673;  299,340;  281,806;  283,225
244,765;  307,340;  286,035;  290,565
244,857;  297,440;  284,986;  287,335
244,949;  298,840;  283,956;  284,945
245,041;  262,940;  250,865;  255,005
245,133;  310,140;  293,695;  296,625
245,225;  292,040;  277,915;  280,695
245,317;  313,240;  289,456;  289,025
245,409;  285,640;  263,755;  269,375
245,501;  301,240;  288,496;  293,045
245,593;  297,740;  286,255;  290,055
245,685;  297,440;  285,405;  288,735
245,776;  300,540;  285,945;  287,235
245,868;  284,840;  271,276;  272,565
245,960;  274,540;  265,875;  263,405
246,052;  323,140;  310,766;  310,445
246,144;  307,040;  294,165;  294,205
246,236;  288,340;  283,576;  283,565
246,328;  306,740;  291,345;  293,965
246,420;  295,340;  279,746;  280,855
246,512;  330,040;  308,236;  310,455
246,604;  294,640;  282,526;  286,825
246,695;  283,740;  273,345;  272,135
246,787;  312,040;  293,526;  301,145
246,879;  310,740;  292,716;  297,145
246,971;  313,440;  299,276;  300,965
247,063;  278,540;  273,255;  278,605
247,155;  311,640;  294,516;  297,195
247,246;  281,540;  283,266;  283,715
247,338;  312,040;  288,116;  294,265
247,430;  319,440;  299,945;  303,475
247,522;  310,340;  297,546;  300,555
247,613;  316,040;  296,586;  299,675
247,705;  307,340;  286,896;  288,445
247,797;  332,440;  305,776;  307,475
247,889;  312,640;  294,706;  295,475
247,980;  320,640;  285,676;  291,995
248,072;  327,940;  282,845;  285,895
248,164;  346,140;  293,216;  298,385
248,256;  295,340;  271,366;  274,105
248,347;  332,740;  309,785;  311,065
248,439;  299,440;  283,165;  282,675
248,531;  313,640;  303,885;  304,835
248,622;  316,240;  307,206;  308,325
248,714;  285,340;  276,945;  278,365
248,806;  297,940;  293,655;  298,015
248,897;  307,840;  291,535;  292,985
248,989;  266,440;  263,956;  263,855
249,081;  291,240;  283,355;  284,905
249,172;  312,440;  289,926;  295,135
249,264;  285,840;  272,076;  273,435
249,356;  290,640;  269,326;  273,745
249,447;  303,340;  282,176;  284,525
249,539;  285,740;  283,086;  284,645
249,630;  301,140;  289,875;  288,495
249,722;  329,640;  313,276;  315,395
249,813;  306,440;  280,496;  284,125
249,905;  299,740;  289,426;  293,665
249,997;  299,840;  281,445;  280,615
250,088;  300,240;  282,255;  288,985
250,180;  303,640;  283,695;  284,575
250,271;  309,040;  281,195;  280,335
250,363;  336,940;  319,105;  320,755
250,454;  292,040;  273,035;  275,615
250,546;  322,240;  285,926;  289,415
250,637;  281,240;  264,445;  261,845
250,729;  289,440;  266,505;  269,555
250,820;  313,640;  289,915;  292,965
250,912;  292,940;  262,355;  267,085
251,003;  299,240;  278,396;  280,475
251,095;  299,440;  282,086;  284,555
251,186;  297,540;  271,415;  274,775
251,277;  309,740;  271,986;  275,265
251,369;  299,740;  275,975;  275,105
251,460;  305,240;  271,456;  273,815
251,552;  311,640;  278,475;  279,655
251,643;  298,440;  268,796;  267,375
251,735;  302,040;  265,246;  267,375
251,826;  299,840;  258,016;  263,245
251,917;  320,940;  278,035;  279,115
252,009;  324,940;  273,396;  275,605
252,100;  329,140;  281,426;  283,345
252,191;  349,640;  289,996;  292,015
252,283;  335,740;  265,095;  267,705
252,374;  365,040;  278,296;  278,375
252,465;  387,140;  295,405;  298,605
252,557;  378,740;  283,576;  286,365
252,648;  370,240;  265,146;  268,635
252,739;  417,540;  280,516;  282,125
252,831;  422,540;  270,836;  280,355
252,922;  451,840;  282,296;  280,045
253,013;  507,740;  273,956;  284,285
253,104;  555,740;  270,076;  270,335
253,196;  646,540;  271,366;  271,175
253,287;  815,840;  281,836;  277,135
253,378; 1160,440;  276,276;  277,975
253,469; 3746,640;  272,385;  276,445
253,561;20471,641;  273,496;  278,855
253,652;40210,840;  282,266;  280,015
253,743; 6623,140;  276,216;  280,985
253,834;  610,540;  259,146;  265,875
253,926;  488,040;  262,605;  267,485
254,017;  475,440;  284,236;  290,235
254,108;  453,040;  291,836;  290,565
254,199;  427,440;  285,326;  291,185
254,290;  435,340;  312,725;  313,865
254,381;  405,840;  287,076;  291,155
254,472;  408,040;  291,935;  300,495
254,564;  413,140;  312,766;  307,565
254,655;  386,140;  304,755;  308,105
254,746;  337,140;  264,896;  264,025
254,837;  373,540;  293,105;  298,435
254,928;  355,740;  266,836;  271,975
255,019;  365,540;  283,505;  286,805
255,110;  367,540;  300,165;  301,665
255,201;  351,240;  281,155;  287,655
255,292;  383,440;  312,706;  316,275
255,383;  345,040;  275,785;  275,725
255,474;  339,240;  273,306;  273,095
255,566;  355,740;  283,926;  286,645
255,657;  338,940;  298,556;  302,445
255,748;  311,640;  271,415;  278,125
255,839;  331,840;  280,695;  282,485
255,930;  321,940;  287,866;  289,735
256,021;  339,240;  298,845;  298,115
256,112;  309,240;  278,456;  278,735
256,203;  346,940;  311,866;  313,365
256,294;  326,040;  293,496;  299,575
256,384;  306,740;  270,565;  275,715
256,475;  314,340;  290,996;  294,595
256,566;  305,740;  281,246;  287,825
256,657;  300,040;  278,945;  278,915
256,748;  302,840;  281,285;  284,675
256,839;  291,740;  274,426;  273,555
256,930;  307,340;  279,165;  283,055
257,021;  324,740;  304,155;  306,465
257,112;  316,140;  304,926;  309,235
257,203;  283,440;  258,445;  259,825
257,294;  269,840;  254,465;  262,175
257,385;  308,840;  288,526;  294,205
257,475;  296,740;  279,135;  278,545
257,566;  307,640;  287,586;  292,255
257,657;  293,240;  269,595;  270,025
257,748;  287,140;  275,935;  276,095
257,839;  300,440;  287,915;  286,025
257,930;  306,540;  285,736;  290,395
258,020;  287,940;  269,716;  271,535
258,111;  284,340;  262,225;  263,255
258,202;  296,940;  288,326;  289,935
258,293;  290,340;  284,655;  285,305
258,384;  323,240;  305,595;  307,665
258,474;  307,340;  288,676;  291,995
258,565;  273,840;  271,635;  273,435
258,656;  301,240;  292,966;  295,145
258,747;  286,040;  271,475;  275,425
258,837;  282,140;  274,246;  273,695
258,928;  286,240;  275,785;  278,605
259,019;  276,640;  268,415;  270,595
259,109;  282,740;  269,685;  269,425
259,200;  295,840;  286,105;  289,815
259,291;  279,440;  269,975;  271,655
259,381;  306,040;  293,026;  295,635
259,472;  299,640;  295,796;  296,545
259,563;  314,940;  303,065;  305,845
259,653;  295,540;  278,296;  281,385
259,744;  282,140;  268,826;  267,735
259,835;  316,540;  300,975;  302,815
259,925;  275,640;  271,505;  277,075
260,016;  288,540;  286,746;  287,585
260,107;  281,440;  258,035;  264,715
260,197;  295,140;  283,975;  286,325
260,288;  289,340;  274,565;  279,155
260,378;  274,240;  267,195;  271,275
260,469;  294,140;  285,915;  288,765
260,560;  283,640;  266,146;  269,495
260,650;  285,140;  271,736;  275,665
260,741;  290,440;  276,366;  279,035
260,831;  279,840;  272,855;  275,905
260,922;  277,540;  266,206;  269,545
261,012;  277,940;  277,665;  278,255
261,103;  308,740;  301,785;  302,875
261,193;  314,740;  302,086;  303,915
261,284;  280,540;  271,806;  273,005
261,374;  302,840;  296,385;  303,855
261,465;  295,340;  287,755;  289,435
261,555;  287,640;  282,255;  280,715
261,646;  299,640;  292,475;  294,375
261,736;  307,040;  287,435;  290,535
261,827;  278,940;  283,716;  284,935
261,917;  309,440;  311,736;  311,595
262,007;  290,340;  283,986;  288,075
262,098;  287,240;  289,445;  287,725
262,188;  337,640;  326,655;  333,475
262,279;  309,140;  300,185;  299,795
262,369;  300,140;  286,285;  289,225
262,459;  300,540;  288,246;  290,365
262,550;  311,640;  303,266;  301,565
262,640;  283,840;  273,005;  276,555
262,731;  302,240;  300,935;  299,335
262,821;  320,140;  310,535;  312,255
262,911;  303,940;  297,875;  298,285
263,002;  292,040;  289,625;  290,825
263,092;  303,840;  303,956;  306,295
263,182;  289,740;  284,806;  285,755
263,273;  289,740;  285,426;  289,395
263,363;  307,040;  300,746;  299,385
263,453;  269,540;  267,375;  268,605
263,543;  309,640;  289,815;  289,615
263,634;  270,740;  266,516;  266,365
263,724;  300,040;  292,586;  293,065
263,814;  313,240;  308,706;  308,885
263,904;  288,140;  281,966;  285,905
263,995;  331,440;  322,276;  322,325
264,085;  306,440;  295,855;  294,575
264,175;  300,740;  296,706;  296,385
264,265;  317,540;  321,105;  321,865
264,356;  274,240;  270,466;  274,385
264,446;  319,040;  308,996;  307,575
264,536;  293,440;  294,026;  297,515
264,626;  313,640;  318,486;  320,175
264,716;  305,240;  298,435;  303,275
264,806;  313,240;  308,776;  310,415
264,897;  267,040;  258,135;  258,615
264,987;  309,540;  303,535;  304,475
265,077;  314,640;  287,046;  292,545
265,167;  384,540;  310,216;  311,575
265,257;  329,440;  290,445;  290,535
265,347;  331,540;  294,336;  295,795
265,437;  320,340;  296,176;  300,635
265,527;  315,640;  293,155;  294,765
265,617;  285,840;  279,875;  285,145
265,708;  321,440;  314,216;  314,825
265,798;  318,540;  305,415;  307,055
265,888;  313,340;  300,716;  305,545
265,978;  295,340;  294,496;  295,825
266,068;  313,740;  310,155;  315,855
266,158;  303,340;  294,005;  297,205
266,248;  282,640;  274,016;  276,865
266,338;  321,940;  313,035;  314,815
266,428;  305,240;  300,635;  302,655
266,518;  322,640;  311,405;  315,615
266,608;  306,540;  299,725;  294,215
266,698;  281,140;  273,586;  276,245
266,788;  285,740;  274,456;  277,745
266,878;  336,740;  325,776;  330,865
266,968;  316,440;  306,725;  309,425
267,058;  304,740;  297,375;  302,895
267,147;  308,440;  301,845;  302,905
267,237;  301,040;  291,815;  295,765
267,327;  293,040;  286,755;  287,895
267,417;  301,140;  301,225;  303,385
267,507;  298,940;  292,176;  294,215
267,597;  291,640;  282,026;  283,655
267,687;  299,240;  285,165;  287,755
267,777;  294,040;  283,986;  284,615
267,867;  324,440;  312,125;  312,585
267,956;  309,840;  302,466;  304,005
268,046;  310,940;  305,466;  310,865
268,136;  302,740;  296,875;  298,905
268,226;  285,240;  274,885;  274,965
268,316;  282,140;  280,766;  280,845
268,406;  304,440;  289,516;  287,595
268,495;  286,340;  284,415;  287,935
268,585;  313,540;  306,716;  309,605
268,675;  293,640;  284,336;  285,535
268,765;  304,040;  296,355;  300,115
268,854;  292,340;  285,935;  286,715
268,944;  292,640;  291,646;  293,805
269,034;  285,740;  283,986;  289,715
269,124;  293,440;  287,216;  290,705
269,213;  295,740;  286,336;  285,525
269,303;  299,440;  290,466;  288,585
269,393;  298,640;  299,845;  298,345
269,483;  308,440;  300,966;  302,735
269,572;  291,340;  282,875;  284,665
269,662;  278,840;  276,105;  283,315
269,752;  318,240;  312,736;  315,705
269,841;  274,340;  266,046;  269,455
269,931;  291,140;  281,586;  283,075
270,021;  299,840;  300,766;  304,675
270,110;  291,640;  285,695;  288,925
270,200;  294,740;  291,665;  299,445
270,289;  288,340;  280,785;  281,105
270,379;  313,040;  301,466;  302,775
270,469;  294,640;  290,556;  289,955
270,558;  307,540;  303,655;  302,185
270,648;  288,740;  282,785;  284,885
270,737;  293,840;  288,526;  291,525
270,827;  312,740;  310,185;  313,455
270,916;  285,140;  286,935;  289,915
271,006;  299,440;  293,475;  292,885
271,096;  325,440;  317,005;  317,215
271,185;  287,640;  289,896;  289,145
271,275;  313,840;  300,706;  303,575
271,364;  288,340;  281,535;  285,725
271,454;  313,240;  308,255;  315,275
271,543;  303,040;  296,935;  297,745
271,633;  294,340;  293,926;  292,835
271,722;  301,340;  292,255;  296,455
271,812;  286,940;  286,296;  289,275
271,901;  296,240;  292,326;  293,765
271,990;  289,140;  291,836;  290,915
272,080;  302,440;  290,635;  294,915
272,169;  310,340;  301,905;  302,555
272,259;  292,040;  293,225;  292,695
272,348;  314,140;  305,796;  308,535
272,438;  293,240;  296,935;  293,635
272,527;  304,340;  303,996;  304,365
272,616;  305,840;  301,866;  305,295
272,706;  325,340;  320,935;  323,195
272,795;  307,540;  314,076;  315,755
272,884;  299,940;  297,076;  299,515
272,974;  326,540;  317,975;  319,965
273,063;  334,440;  338,206;  337,765
273,152;  310,640;  310,306;  307,735
273,242;  329,540;  320,276;  324,915
273,331;  324,840;  319,315;  322,835
273,420;  309,540;  301,105;  310,255
273,510;  309,940;  307,355;  308,155
273,599;  304,740;  303,255;  306,195
273,688;  305,040;  302,605;  301,885
273,778;  290,840;  285,065;  287,095
273,867;  318,040;  320,266;  317,015
273,956;  313,740;  303,725;  303,805
274,045;  281,040;  273,966;  275,965
274,135;  306,040;  303,905;  305,375
274,224;  292,840;  286,516;  290,045
274,313;  309,640;  305,586;  307,745
274,402;  281,440;  284,796;  287,085
274,491;  318,440;  310,975;  312,995
274,581;  309,040;  301,415;  302,765
274,670;  296,440;  293,146;  294,385
274,759;  302,940;  299,405;  300,435
274,848;  287,640;  276,655;  279,925
274,937;  289,540;  289,945;  287,635
275,026;  290,840;  285,616;  287,835
275,116;  326,040;  316,415;  315,805
275,205;  297,740;  266,926;  271,135
275,294;  328,540;  302,315;  304,335
275,383;  310,440;  299,905;  297,985
275,472;  295,540;  290,005;  290,825
275,561;  296,040;  290,505;  290,285
275,650;  308,240;  306,046;  306,435
275,739;  295,640;  294,776;  297,985
275,828;  278,640;  274,635;  277,965
275,917;  314,640;  312,065;  306,825
276,006;  297,940;  295,426;  296,835
276,095;  295,140;  294,526;  298,665
276,184;  316,640;  309,556;  307,945
276,273;  306,140;  303,105;  304,505
276,362;  274,740;  275,896;  278,535
276,451;  290,340;  291,306;  291,915
276,540;  293,740;  295,896;  296,105
276,629;  294,740;  292,576;  293,225
276,718;  281,240;  270,695;  274,545
276,807;  273,740;  271,625;  274,825
276,896;  290,040;  280,526;  284,495
276,985;  286,840;  283,616;  289,365
277,074;  307,540;  299,105;  300,525
277,163;  301,140;  294,746;  299,085
277,252;  279,840;  279,646;  276,465
277,341;  294,540;  281,236;  289,265
277,430;  284,140;  276,845;  279,355
277,519;  305,840;  298,956;  301,695
277,608;  272,740;  266,546;  267,775
277,696;  280,640;  266,975;  269,445
277,785;  289,540;  284,095;  283,485
277,874;  299,140;  299,605;  296,795
277,963;  281,640;  288,155;  289,995
278,052;  265,240;  264,776;  265,525
278,141;  283,140;  288,415;  290,745
278,229;  295,940;  290,146;  291,935
278,318;  268,140;  268,236;  271,495
278,407;  290,040;  285,576;  285,935
278,496;  298,140;  289,915;  291,965
278,585;  299,740;  300,486;  302,275
278,673;  268,840;  263,836;  266,715
278,762;  275,540;  266,176;  270,485
278,851;  284,240;  285,496;  286,035
278,940;  303,540;  303,685;  303,305
279,028;  301,540;  296,306;  299,585
279,117;  294,640;  282,725;  286,655
279,206;  277,740;  279,475;  284,105
279,294;  276,740;  284,396;  286,665
279,383;  289,740;  286,646;  287,335
279,472;  304,940;  298,095;  298,295
279,561;  292,940;  283,355;  284,975
279,649;  314,640;  308,535;  308,935
279,738;  267,840;  255,566;  255,215
279,827;  304,540;  306,785;  308,805
279,915;  273,340;  275,285;  276,335
280,004;  288,040;  286,565;  288,905
280,092;  310,740;  305,236;  306,635
280,181;  287,640;  280,516;  282,605
280,270;  301,040;  277,866;  281,595
280,358;  303,840;  291,366;  288,915
280,447;  277,340;  261,415;  264,455
280,535;  281,540;  276,016;  275,945
280,624;  276,340;  274,185;  276,805
280,713;  283,740;  277,146;  283,385
280,801;  294,040;  293,116;  293,805
280,890;  288,240;  289,716;  295,475
280,978;  279,340;  280,755;  281,945
281,067;  262,740;  250,676;  255,865
281,155;  281,340;  274,855;  275,705
281,244;  326,340;  313,595;  316,445
281,332;  305,240;  290,845;  293,825
281,421;  287,540;  271,605;  273,675
281,509;  290,140;  284,646;  282,415
281,598;  265,240;  262,435;  263,765
281,686;  298,840;  290,776;  288,945
281,775;  296,140;  285,516;  290,815
281,863;  289,040;  278,016;  279,225
281,951;  277,340;  267,665;  270,735
282,040;  315,940;  300,315;  301,115
282,128;  298,640;  288,375;  294,235
282,217;  283,940;  265,926;  266,075
282,305;  301,840;  294,796;  294,045
282,393;  295,440;  286,505;  284,595
282,482;  288,440;  279,535;  283,255
282,570;  279,240;  266,945;  270,215
282,658;  291,540;  276,116;  277,715
282,747;  276,040;  265,026;  267,905
282,835;  318,240;  306,076;  309,035
282,923;  270,540;  264,655;  267,805
283,012;  300,040;  291,366;  296,345
283,100;  279,040;  269,185;  274,675
283,188;  269,340;  261,125;  262,525
283,277;  294,440;  284,336;  284,745
283,365;  275,940;  271,676;  278,375
283,453;  278,940;  264,755;  270,455
283,542;  296,340;  290,896;  293,765
283,630;  279,840;  276,195;  278,595
283,718;  283,140;  271,195;  274,365
283,806;  245,140;  241,706;  247,485
283,894;  280,240;  274,336;  274,395
283,983;  284,740;  282,165;  282,605
284,071;  299,940;  285,285;  291,495
284,159;  312,340;  309,125;  314,805
284,247;  291,240;  287,466;  288,555
284,335;  289,940;  286,935;  287,485
284,424;  293,640;  283,915;  288,465
284,512;  282,940;  283,475;  286,175
284,600;  274,240;  279,415;  280,145
284,688;  323,340;  312,815;  317,115
284,776;  291,140;  286,815;  287,745
284,864;  309,340;  302,125;  308,655
284,952;  295,940;  289,625;  289,025
285,041;  301,940;  298,255;  298,145
285,129;  306,540;  299,435;  302,445
285,217;  299,340;  300,056;  303,885
285,305;  329,440;  318,676;  319,885
285,393;  286,940;  275,776;  278,695
285,481;  289,240;  296,665;  298,405
285,569;  291,840;  282,966;  285,145
285,657;  302,940;  295,165;  296,255
285,745;  300,540;  292,655;  293,125
285,833;  297,140;  289,505;  293,165
285,921;  299,740;  298,116;  300,945
286,009;  302,740;  301,105;  303,655
286,097;  301,040;  298,236;  301,315
286,185;  284,640;  284,405;  284,795
286,273;  293,940;  283,415;  284,655
286,361;  318,440;  307,915;  311,825
286,449;  292,240;  296,195;  294,565
286,537;  312,040;  304,105;  302,085
286,625;  296,240;  291,185;  293,415
286,713;  282,340;  275,806;  280,315
286,801;  310,640;  312,076;  307,795
286,889;  323,140;  319,435;  320,055
286,976;  291,340;  287,905;  291,205
287,064;  312,140;  307,635;  311,875
287,152;  306,740;  303,576;  305,585
287,240;  314,040;  309,185;  308,845
287,328;  282,740;  287,685;  281,755
287,416;  296,240;  290,975;  292,385
287,504;  303,540;  294,435;  298,285
287,591;  296,140;  298,176;  300,225
287,679;  290,240;  286,095;  286,145
287,767;  300,640;  298,206;  296,985
287,855;  301,340;  303,736;  307,515
287,943;  318,540;  306,716;  309,435
288,030;  294,640;  293,456;  291,795
288,118;  319,840;  318,255;  318,995
288,206;  281,540;  274,956;  275,705
288,294;  306,540;  301,986;  304,135
288,382;  307,140;  300,776;  303,615
288,469;  313,240;  304,396;  308,895
288,557;  296,340;  294,095;  292,615
288,645;  324,040;  323,396;  323,315
288,732;  282,140;  278,915;  279,235
288,820;  306,040;  304,576;  306,785
288,908;  307,340;  304,826;  303,915
288,995;  317,240;  310,945;  310,305
289,083;  298,540;  293,026;  292,935
289,171;  342,040;  320,165;  325,565
289,258;  372,140;  322,176;  324,305
289,346;  430,240;  326,266;  329,365
289,434;  316,840;  303,435;  306,185
289,521;  291,940;  280,415;  286,295
289,609;  333,740;  320,426;  325,405
289,697;  324,240;  312,336;  315,125
289,784;  302,540;  295,445;  295,775
289,872;  325,440;  306,905;  313,015
289,959;  297,940;  282,375;  283,415
290,047;  303,840;  296,546;  300,865
290,134;  276,140;  272,665;  273,815
290,222;  308,840;  308,915;  308,665
290,310;  316,040;  304,905;  307,145
290,397;  326,240;  328,505;  332,835
290,485;  292,740;  290,815;  293,005
290,572;  315,640;  313,225;  314,645
290,660;  318,840;  306,385;  306,205
290,747;  295,840;  295,165;  292,775
290,835;  307,840;  299,016;  302,505
290,922;  304,640;  304,016;  305,515
291,009;  298,240;  297,676;  301,715
291,097;  302,640;  297,926;  300,755
291,184;  334,840;  332,716;  338,585
291,272;  296,440;  282,966;  288,375
291,359;  288,340;  283,915;  289,305
291,447;  306,140;  303,086;  304,735
291,534;  327,440;  327,326;  323,005
291,621;  299,740;  302,845;  301,105
291,709;  289,940;  285,716;  283,705
291,796;  313,240;  320,146;  316,555
291,884;  295,440;  291,466;  296,115
291,971;  319,440;  315,065;  320,295
292,058;  289,440;  288,725;  288,985
292,146;  290,640;  293,746;  297,955
292,233;  293,540;  285,426;  284,765
292,320;  297,240;  294,306;  297,685
292,408;  310,840;  309,086;  308,565
292,495;  306,740;  290,565;  293,085
292,582;  286,140;  286,845;  287,375
292,669;  287,240;  281,415;  286,055
292,757;  284,740;  282,176;  283,865
292,844;  317,740;  312,935;  313,175
292,931;  282,140;  275,176;  277,485
293,018;  294,540;  291,516;  289,915
293,106;  305,740;  299,966;  303,035
293,193;  279,340;  272,415;  274,385
293,280;  310,640;  297,255;  303,635
293,367;  291,640;  296,956;  295,215
293,455;  290,540;  293,185;  294,155
293,542;  277,140;  275,695;  281,445
293,629;  279,140;  279,035;  281,855
293,716;  304,140;  305,646;  311,195
293,803;  285,640;  287,105;  287,695
293,890;  313,040;  310,336;  312,555
293,978;  294,940;  284,105;  290,755
294,065;  299,940;  286,725;  284,345
294,152;  304,040;  302,385;  304,355
294,239;  277,540;  275,646;  274,625
294,326;  299,740;  286,746;  290,635
294,413;  276,740;  278,046;  278,465
294,500;  303,040;  292,586;  295,255
294,587;  280,940;  283,915;  287,195
294,674;  301,540;  305,875;  306,925
294,761;  292,340;  288,896;  287,945
294,848;  294,240;  286,866;  294,115
294,935;  294,140;  290,746;  290,555
295,022;  275,540;  272,396;  274,105
295,109;  260,540;  258,466;  262,665
295,196;  292,640;  291,405;  295,265
295,283;  288,640;  281,176;  278,745
295,370;  312,140;  308,975;  312,155
295,457;  293,840;  289,986;  290,435
295,544;  286,440;  285,105;  287,985
295,631;  301,140;  290,165;  295,805
295,718;  286,840;  272,676;  274,015
295,805;  303,640;  296,225;  296,685
295,892;  310,140;  300,005;  304,445
295,979;  294,240;  291,266;  292,755
296,066;  298,740;  293,996;  296,145
296,153;  297,940;  296,026;  296,355
296,240;  311,940;  299,206;  300,535
296,327;  298,240;  285,206;  285,615
296,413;  316,840;  301,285;  305,075
296,500;  339,540;  302,755;  305,145
296,587;  525,340;  288,616;  286,065
296,674; 1595,040;  294,396;  297,335
296,761;  828,240;  300,095;  298,245
296,848;  296,540;  281,956;  285,815
296,934;  294,540;  290,966;  295,265
297,021;  301,640;  292,565;  292,975
297,108;  279,640;  276,366;  280,895
297,195;  299,640;  291,466;  294,705
297,282;  293,940;  286,535;  286,195
297,368;  315,940;  310,026;  305,975
297,455;  281,940;  279,155;  283,145
297,542;  312,940;  311,375;  313,235
297,629;  297,740;  299,016;  300,205
297,715;  319,140;  308,285;  310,385
297,802;  308,140;  300,466;  303,285
297,889;  310,740;  311,716;  313,025
297,975;  324,040;  322,836;  323,685
298,062;  319,140;  310,505;  312,995
298,149;  285,040;  273,505;  274,905
298,235;  296,640;  291,135;  294,075
298,322;  305,440;  294,806;  292,785
298,409;  317,340;  311,195;  312,715
298,495;  290,640;  285,435;  283,435
298,582;  310,540;  307,516;  308,065
298,669;  299,240;  290,526;  294,245
298,755;  308,140;  299,065;  302,235
298,842;  315,040;  304,755;  309,095
298,928;  303,140;  303,855;  304,595
299,015;  298,440;  294,896;  296,705
299,102;  320,640;  318,986;  320,565
299,188;  318,040;  315,956;  316,045
299,275;  310,840;  309,926;  309,365
299,361;  282,640;  278,875;  281,665
299,448;  310,740;  312,466;  310,885
299,534;  309,340;  312,355;  312,735
299,621;  309,340;  304,655;  303,865
299,707;  306,340;  299,016;  304,675
299,794;  321,740;  319,885;  319,685
299,880;  322,840;  317,076;  318,325
299,967;  312,740;  296,345;  296,295
300,053;  302,040;  295,935;  299,065
300,140;  328,140;  323,086;  328,875
300,226;  314,640;  313,885;  313,595
300,312;  309,440;  307,276;  306,695
300,399;  308,540;  305,505;  308,465
300,485;  308,440;  297,776;  301,725
300,572;  283,640;  281,655;  281,655
300,658;  297,440;  297,216;  294,585
300,744;  312,440;  310,706;  311,315
300,831;  321,040;  313,595;  318,275
300,917;  308,640;  321,676;  320,915
301,004;  314,340;  311,556;  311,015
301,090;  277,040;  277,785;  280,095
301,176;  289,340;  284,255;  288,205
301,263;  325,940;  313,676;  314,925
301,349;  288,240;  289,475;  293,305
301,435;  291,440;  284,276;  285,095
301,521;  319,640;  314,625;  313,245
301,608;  324,340;  314,695;  315,515
301,694;  305,540;  297,896;  300,535
301,780;  312,440;  303,046;  298,285
301,867;  285,540;  280,836;  285,265
301,953;  308,240;  296,595;  301,165
302,039;  389,240;  295,116;  297,515
302,125;  543,840;  298,445;  304,125
302,211;  363,140;  332,926;  334,115
302,298;  352,340;  301,926;  305,295
302,384;  311,140;  281,116;  287,095
302,470;  304,740;  289,505;  291,305
302,556;  317,440;  301,935;  305,645
302,642;  302,740;  293,456;  295,155
302,729;  300,540;  289,306;  293,525
302,815;  317,940;  317,966;  319,775
302,901;  292,040;  296,475;  298,745
302,987;  310,740;  307,716;  308,245
303,073;  301,840;  304,185;  302,795
303,159;  301,340;  296,945;  298,695
303,245;  286,540;  284,336;  290,495
303,331;  292,040;  283,486;  286,455
303,417;  305,640;  294,556;  296,145
303,503;  318,240;  310,046;  312,155
303,590;  293,640;  289,146;  291,705
303,676;  312,140;  299,505;  300,385
303,762;  290,540;  287,185;  287,835
303,848;  314,640;  311,026;  312,055
303,934;  313,540;  304,915;  307,775
304,020;  311,440;  301,796;  304,745
304,106;  320,240;  309,975;  314,015
304,192;  294,440;  291,796;  296,765
304,278;  306,440;  302,896;  304,455
304,364;  323,740;  323,026;  324,755
304,450;  309,240;  301,496;  304,095
304,535;  300,340;  304,005;  304,245
304,621;  305,340;  301,565;  302,205
304,707;  311,840;  306,296;  307,635
304,793;  321,840;  318,625;  318,575
304,879;  311,740;  306,776;  310,585
304,965;  318,440;  312,845;  313,365
305,051;  311,640;  308,616;  311,355
305,137;  307,540;  318,146;  324,235
305,223;  297,540;  291,445;  293,725
305,309;  325,440;  313,496;  317,755
305,394;  305,640;  311,996;  311,465
305,480;  304,340;  299,426;  304,775
305,566;  310,040;  309,355;  310,525
305,652;  311,240;  313,605;  317,885
305,738;  356,140;  349,206;  353,435
305,824;  314,940;  316,016;  315,095
305,909;  319,240;  323,815;  325,155
305,995;  291,140;  289,595;  290,025
306,081;  348,040;  348,345;  350,435
306,167;  315,540;  303,966;  307,875
306,252;  336,640;  324,375;  325,505
306,338;  332,340;  331,366;  335,515
306,424;  308,840;  306,595;  307,415
306,510;  318,540;  316,105;  319,795
306,595;  333,140;  323,685;  322,125
306,681;  317,640;  316,926;  318,895
306,767;  308,340;  305,336;  309,425
306,852;  330,740;  328,255;  331,375
306,938;  321,740;  325,796;  325,905
307,024;  302,940;  302,875;  304,755
307,109;  338,240;  336,065;  338,965
307,195;  320,740;  316,326;  318,385
307,281;  328,640;  318,716;  318,575
307,366;  321,540;  313,345;  310,455
307,452;  326,540;  312,426;  316,335
307,537;  309,540;  296,776;  298,485
307,623;  299,140;  292,105;  296,985
307,709;  319,040;  309,885;  310,795
307,794;  285,340;  288,576;  291,835
307,880;  329,540;  320,236;  319,735
307,965;  305,440;  307,456;  307,525
308,051;  298,240;  297,195;  298,065
308,136;  301,040;  297,165;  296,745
308,222;  301,240;  300,366;  302,045
308,307;  291,640;  295,116;  296,645
308,393;  303,640;  295,535;  300,335
308,478;  320,740;  321,826;  318,975
308,564;  307,540;  295,516;  288,925
308,649;  308,940;  308,496;  308,295
308,735;  295,540;  294,155;  300,535
308,820;  327,440;  320,655;  319,455
308,906;  294,340;  291,625;  300,515
308,991;  337,840;  341,076;  338,375
309,076;  317,340;  319,336;  320,645
309,162;  279,040;  283,945;  283,805
309,247;  312,440;  309,945;  308,415
309,333;  296,940;  291,646;  297,855
309,418;  308,040;  298,665;  301,955
309,503;  302,540;  297,646;  300,235
309,589;  304,440;  303,725;  305,345
309,674;  298,140;  290,945;  289,235
309,759;  303,740;  303,315;  304,195
309,845;  317,740;  311,016;  312,415
309,930;  308,840;  305,966;  307,375
310,015;  279,040;  276,095;  276,835
310,101;  309,740;  315,616;  319,905
310,186;  285,540;  285,426;  288,565
310,271;  298,140;  297,296;  298,295
310,357;  311,440;  297,526;  296,455
310,442;  313,240;  302,445;  303,865
310,527;  303,840;  297,766;  301,125
310,612;  289,940;  278,195;  281,425
310,698;  323,840;  319,725;  321,135
310,783;  297,940;  301,176;  302,685
310,868;  297,640;  294,285;  295,125
310,953;  289,640;  284,165;  285,195
311,038;  314,240;  311,146;  310,075
311,124;  305,540;  294,635;  290,925
311,209;  280,340;  276,736;  277,355
311,294;  325,940;  310,206;  312,575
311,379;  279,640;  276,785;  277,345
311,464;  304,640;  297,405;  297,635
311,549;  293,040;  282,385;  284,505
311,634;  288,140;  290,396;  286,805
311,719;  323,440;  316,016;  315,415
311,805;  301,840;  289,266;  291,605
311,890;  297,040;  295,165;  295,925
311,975;  297,540;  281,526;  286,055
312,060;  307,840;  298,146;  302,435
312,145;  290,040;  277,586;  276,025
312,230;  317,640;  290,815;  296,495
312,315;  331,240;  294,065;  296,045
312,400;  405,240;  296,396;  299,795
312,485; 1543,840;  290,535;  292,475
312,570; 1274,340;  277,125;  279,615
312,655;  350,240;  308,176;  313,325
312,740;  331,240;  301,616;  302,005
312,825;  339,940;  304,105;  307,725
312,910;  354,440;  307,736;  309,235
312,995;  448,640;  296,236;  298,245
313,080; 1928,040;  285,655;  286,805
313,165; 2176,840;  303,565;  305,305
313,250;  376,240;  287,276;  287,825
313,335;  318,040;  307,435;  312,125
313,419;  280,440;  267,466;  268,635
313,504;  317,840;  313,355;  315,225
313,589;  300,540;  295,216;  297,545
313,674;  317,140;  307,206;  310,085
313,759;  285,440;  281,556;  282,625
313,844;  295,240;  292,776;  291,005
313,929;  294,740;  289,945;  291,695
314,014;  318,140;  313,306;  315,005
314,098;  306,040;  299,035;  300,425
314,183;  272,140;  263,505;  263,795
314,268;  309,740;  296,496;  298,955
314,353;  307,340;  302,026;  306,185
314,438;  319,240;  306,905;  311,515
314,522;  318,140;  309,486;  308,535
314,607;  300,340;  307,565;  307,855
314,692;  304,540;  301,885;  303,855
314,777;  291,540;  291,766;  292,395
314,861;  284,340;  277,285;  276,385
314,946;  315,440;  315,116;  317,565
315,031;  293,940;  291,875;  294,115
315,115;  310,940;  306,206;  308,065
315,200;  322,740;  312,146;  313,065
315,285;  295,940;  289,486;  289,595
315,369;  295,540;  287,945;  288,545
315,454;  316,640;  311,905;  311,025
315,539;  307,240;  310,246;  307,795
315,623;  313,740;  309,426;  313,225
315,708;  340,440;  335,605;  336,825
315,793;  306,140;  297,986;  298,155
315,877;  312,040;  302,975;  305,445
315,962;  297,340;  289,105;  291,925
316,046;  320,340;  317,065;  319,225
316,131;  338,540;  334,516;  337,215
316,216;  316,840;  310,315;  310,785
316,300;  312,440;  303,345;  302,165
316,385;  329,540;  325,315;  324,305
316,469;  336,540;  330,625;  331,955
316,554;  301,440;  296,005;  298,425
316,638;  291,340;  296,725;  301,565
316,723;  294,340;  292,546;  293,795
316,807;  294,440;  299,595;  299,275
316,892;  295,540;  288,975;  289,925
316,976;  320,340;  314,405;  316,505
317,061;  304,040;  306,035;  305,965
317,145;  326,140;  327,655;  325,965
317,230;  324,540;  321,505;  319,905
317,314;  274,840;  275,565;  275,085
317,398;  316,040;  310,706;  312,245
317,483;  288,540;  290,026;  291,085
317,567;  317,740;  315,326;  317,865
317,652;  283,640;  283,526;  286,625
317,736;  307,440;  308,776;  309,285
317,820;  330,040;  329,005;  334,665
317,905;  307,140;  306,706;  307,035
317,989;  301,440;  298,285;  300,875
318,073;  303,040;  298,076;  297,705
318,158;  293,640;  284,966;  285,565
318,242;  299,540;  296,845;  299,095
318,326;  280,440;  283,155;  284,015
318,411;  286,740;  295,125;  296,565
318,495;  286,740;  285,776;  287,165
318,579;  285,540;  288,746;  289,305
318,664;  283,740;  280,315;  284,255
318,748;  305,740;  305,996;  310,145
318,832;  303,740;  290,806;  289,475
318,916;  280,740;  274,785;  277,335
319,001;  301,340;  299,945;  301,485
319,085;  304,540;  292,885;  290,905
319,169;  298,940;  293,396;  294,485
319,253;  283,040;  287,216;  285,525
319,337;  312,340;  306,246;  304,885
319,422;  313,640;  316,125;  313,225
319,506;  288,340;  283,326;  285,905
319,590;  310,440;  303,915;  305,525
319,674;  298,040;  291,926;  295,405
319,758;  303,040;  295,165;  300,215
319,842;  314,140;  306,135;  309,155
319,926;  304,340;  294,815;  295,205
320,010;  280,240;  267,046;  269,575
320,095;  289,240;  280,926;  284,685
320,179;  290,140;  279,125;  281,175
320,263;  290,240;  277,385;  285,805
320,347;  271,340;  271,296;  279,075
320,431;  268,640;  273,435;  274,355
320,515;  298,140;  296,375;  299,935
320,599;  277,140;  269,866;  273,825
320,683;  310,940;  305,706;  305,495
320,767;  271,340;  266,236;  266,205
320,851;  290,340;  281,855;  287,785
320,935;  310,940;  312,565;  318,275
321,019;  293,740;  292,975;  290,075
321,103;  280,040;  278,135;  280,585
321,187;  273,740;  273,165;  273,265
321,271;  294,840;  294,616;  296,825
321,355;  286,840;  281,595;  283,805
321,439;  309,040;  301,216;  301,725
321,523;  287,540;  282,266;  284,705
321,606;  290,840;  287,426;  288,215
321,690;  291,040;  287,026;  288,215
321,774;  303,640;  288,336;  292,205
321,858;  289,340;  292,966;  291,945
321,942;  296,040;  294,276;  298,975
322,026;  285,540;  283,315;  282,695
322,110;  300,940;  293,146;  295,755
322,194;  301,240;  295,355;  301,055
322,277;  290,640;  286,135;  287,285
322,361;  276,840;  278,595;  281,215
322,445;  290,540;  289,315;  291,095
322,529;  298,840;  297,716;  299,645
322,613;  291,740;  297,206;  297,795
322,696;  269,140;  267,695;  272,865
322,780;  285,940;  283,026;  283,485
322,864;  278,940;  272,625;  279,835
322,948;  299,240;  292,326;  295,965
323,031;  285,140;  281,565;  282,215
323,115;  289,640;  284,586;  285,215
323,199;  300,740;  296,565;  299,105
323,282;  313,040;  307,496;  310,065
323,366;  296,040;  287,296;  293,625
323,450;  278,140;  273,496;  275,835
323,533;  316,340;  314,576;  317,415
323,617;  267,240;  268,695;  271,585
323,701;  284,840;  281,105;  283,575
323,784;  296,140;  292,576;  294,205
323,868;  295,440;  297,866;  299,875
323,952;  294,940;  290,966;  294,175
324,035;  315,540;  305,926;  310,825
324,119;  310,240;  295,466;  298,455
324,202;  299,240;  286,836;  292,745
324,286;  291,240;  284,986;  286,605
324,370;  294,540;  293,105;  296,765
324,453;  300,040;  299,616;  301,745
324,537;  296,740;  294,426;  298,035
324,620;  289,840;  286,635;  291,765
324,704;  280,540;  270,445;  276,525
324,787;  299,240;  294,875;  296,265
324,871;  310,340;  310,986;  315,255
324,954;  309,440;  312,246;  315,985
325,038;  306,840;  306,466;  306,985
325,121;  313,440;  308,695;  312,075
325,205;  295,340;  290,396;  293,295
325,288;  274,940;  279,556;  285,675
325,371;  307,640;  298,945;  302,395
325,455;  322,140;  314,026;  312,045
325,538;  281,440;  281,516;  287,185
325,622;  323,340;  320,806;  321,295
325,705;  301,340;  297,716;  298,675
325,788;  305,440;  313,625;  316,645
325,872;  296,740;  300,796;  300,745
325,955;  334,340;  319,845;  325,065
326,039;  323,840;  309,576;  312,795
326,122;  312,640;  310,746;  311,665
326,205;  317,240;  311,806;  310,235
326,289;  332,340;  313,986;  319,245
326,372;  305,440;  294,746;  299,195
326,455;  334,240;  323,095;  324,405
326,538;  322,840;  312,336;  316,545
326,622;  315,040;  318,396;  320,075
326,705;  306,240;  287,315;  287,875
326,788;  325,640;  321,266;  322,405
326,871;  319,740;  315,576;  317,965
326,955;  319,640;  313,836;  315,225
327,038;  311,240;  310,116;  310,855
327,121;  301,840;  301,516;  307,855
327,204;  304,140;  313,216;  314,045
327,288;  325,940;  328,956;  332,375
327,371;  298,040;  288,185;  296,955
327,454;  312,240;  313,065;  313,845
327,537;  305,740;  299,815;  302,435
327,620;  325,340;  322,935;  330,145
327,703;  314,340;  309,076;  310,615
327,786;  310,140;  311,076;  312,115
327,870;  324,340;  323,155;  328,715
327,953;  299,840;  301,155;  305,785
328,036;  293,240;  293,105;  299,035
328,119;  320,240;  317,576;  321,135
328,202;  303,340;  301,885;  305,875
328,285;  318,540;  326,776;  329,015
328,368;  328,840;  320,935;  322,625
328,451;  321,940;  320,635;  322,565
328,534;  309,540;  301,266;  307,075
328,617;  322,340;  305,676;  311,785
328,700;  330,440;  326,505;  326,695
328,783;  320,540;  320,785;  322,875
328,866;  320,740;  314,095;  319,935
328,949;  327,240;  319,966;  326,555
329,032;  301,240;  297,826;  300,605
329,115;  297,240;  290,905;  295,945
329,198;  285,140;  282,956;  283,785
329,281;  300,840;  299,336;  298,465
329,364;  320,340;  316,246;  319,245
329,447;  307,240;  307,176;  309,255
329,530;  334,840;  328,155;  328,175
329,613;  310,140;  300,565;  306,725
329,696;  332,540;  326,806;  330,715
329,778;  313,440;  311,306;  316,915
329,861;  299,440;  295,236;  299,565
329,944;  330,640;  321,685;  327,225
330,027;  315,640;  311,576;  315,115
330,110;  306,840;  307,595;  311,705
330,193;  297,740;  295,306;  299,955
330,275;  318,940;  312,296;  315,835
330,358;  295,540;  291,776;  296,185
330,441;  331,240;  323,586;  325,365
330,524;  318,040;  305,216;  311,095
330,607;  301,340;  304,345;  306,905
330,689;  315,140;  313,105;  314,535
330,772;  315,340;  311,105;  312,425
330,855;  331,240;  325,065;  327,855
330,938;  319,840;  312,315;  321,275
331,020;  322,440;  317,176;  320,535
331,103;  292,340;  293,035;  294,505
331,186;  313,240;  305,146;  307,085
331,268;  299,840;  293,565;  298,695
331,351;  314,940;  313,026;  316,455
331,434;  317,740;  308,385;  312,645
331,516;  322,640;  319,076;  321,185
331,599;  295,140;  297,095;  301,425
331,682;  314,040;  310,736;  310,985
331,764;  300,240;  293,326;  297,915
331,847;  317,740;  313,716;  315,705
331,929;  288,740;  290,026;  293,225
332,012;  314,440;  309,625;  310,055
332,095;  324,440;  323,306;  326,625
332,177;  334,040;  320,806;  324,285
332,260;  324,440;  327,526;  328,035
332,342;  310,040;  309,246;  314,445
332,425;  307,140;  312,516;  311,505
332,507;  311,840;  308,526;  311,575
332,590;  287,240;  287,595;  291,655
332,672;  288,040;  294,885;  298,455
332,755;  313,440;  306,855;  311,605
332,837;  307,640;  310,716;  312,255
332,920;  319,440;  309,076;  315,155
333,002;  331,540;  325,676;  328,895
333,085;  328,340;  313,375;  315,165
333,167;  295,740;  296,875;  298,575
333,249;  298,840;  294,526;  298,145
333,332;  299,540;  293,296;  297,715
333,414;  303,940;  300,035;  304,875
333,497;  302,240;  300,255;  302,305
333,579;  297,540;  300,996;  306,375
333,661;  322,140;  319,706;  320,745
333,744;  293,240;  293,695;  297,125
333,826;  309,140;  305,766;  306,065
333,908;  324,040;  313,896;  316,665
333,991;  309,440;  291,266;  291,545
334,073;  470,140;  312,706;  318,525
334,155;  367,140;  304,086;  305,525
334,238;  325,040;  318,576;  326,145
334,320;  291,340;  297,046;  300,585
334,402;  308,140;  302,996;  304,895
334,485;  315,640;  303,655;  304,015
334,567;  306,540;  299,776;  301,975
334,649;  278,140;  278,426;  282,925
334,731;  321,540;  313,456;  317,305
334,813;  310,240;  315,605;  320,355
334,896;  295,240;  290,185;  294,595
334,978;  305,640;  309,165;  302,585
335,060;  308,440;  304,255;  304,235
335,142;  300,140;  301,665;  302,275
335,224;  305,740;  309,766;  311,745
335,307;  304,340;  297,456;  298,965
335,389;  320,740;  310,385;  317,305
335,471;  309,140;  299,896;  306,115
335,553;  321,340;  319,866;  318,905
335,635;  315,540;  312,836;  315,315
335,717;  305,040;  298,195;  300,145
335,799;  329,740;  322,695;  323,585
335,881;  281,940;  278,385;  282,845
335,963;  294,040;  291,796;  293,005
336,045;  296,340;  295,516;  301,085
336,128;  264,740;  270,945;  275,225
336,210;  298,740;  288,996;  292,295
336,292;  298,940;  297,845;  300,615
336,374;  311,340;  300,956;  306,155
336,456;  289,540;  285,616;  288,495
336,538;  307,840;  303,165;  304,435
336,620;  310,240;  310,576;  312,205
336,702;  305,640;  294,766;  294,235
336,783;  311,240;  302,556;  304,225
336,865;  307,940;  304,176;  305,725
336,947;  311,640;  308,486;  311,205
337,029;  284,840;  281,826;  282,945
337,111;  313,240;  316,266;  316,735
337,193;  284,740;  280,986;  284,795
337,275;  315,740;  310,815;  314,535
337,357;  319,140;  318,815;  324,805
337,439;  303,340;  305,255;  310,655
337,521;  284,440;  277,225;  280,915
337,602;  306,340;  298,435;  301,085
337,684;  320,940;  315,635;  317,455
337,766;  317,140;  312,266;  312,305
337,848;  288,740;  295,086;  301,025
337,930;  305,140;  303,165;  306,525
338,012;  292,840;  298,586;  299,555
338,093;  318,740;  312,396;  315,895
338,175;  317,340;  318,195;  321,575
338,257;  305,540;  306,945;  309,225
338,339;  297,640;  294,086;  300,165
338,420;  315,240;  310,986;  310,895
338,502;  305,040;  298,836;  304,265
338,584;  284,940;  286,736;  289,235
338,666;  303,840;  303,426;  302,365
338,747;  338,940;  330,806;  334,875
338,829;  311,140;  309,176;  309,265
338,911;  304,240;  296,236;  298,915
338,992;  299,640;  295,746;  294,435
339,074;  308,440;  306,155;  307,855
339,156;  305,840;  298,176;  303,395
339,237;  318,540;  325,035;  327,765
339,319;  286,640;  294,935;  300,045
339,400;  313,340;  309,065;  311,225
339,482;  280,340;  278,165;  280,605
339,564;  311,440;  317,026;  316,575
339,645;  308,940;  304,595;  308,105
339,727;  289,540;  290,216;  294,375
339,808;  327,840;  317,685;  322,555
339,890;  301,340;  299,956;  302,415
339,971;  319,940;  307,016;  315,055
340,053;  345,240;  336,746;  335,255
340,134;  288,640;  296,535;  298,415
340,216;  317,840;  315,556;  319,645
340,297;  298,040;  298,396;  301,525
340,379;  319,840;  314,736;  316,975
340,460;  312,140;  306,685;  306,615
340,542;  300,040;  294,535;  297,775
340,623;  325,740;  307,926;  312,435
340,705;  302,540;  297,516;  295,795
340,786;  286,240;  289,685;  291,925
340,868;  304,840;  308,826;  304,055
340,949;  282,740;  285,605;  286,145
341,030;  325,240;  321,435;  328,715
341,112;  288,340;  280,565;  284,075
341,193;  278,040;  270,135;  273,595
341,274;  321,340;  322,176;  320,965
341,356;  323,140;  320,716;  321,795
341,437;  309,740;  301,635;  300,825
341,518;  309,740;  307,176;  314,795
341,600;  323,540;  320,866;  322,465
341,681;  320,940;  328,866;  332,375
341,762;  328,740;  325,206;  323,705
341,844;  292,540;  287,146;  292,185
341,925;  305,040;  308,225;  311,205
342,006;  322,440;  320,426;  323,055
342,087;  291,540;  288,095;  292,095
342,169;  311,940;  307,026;  309,845
342,250;  294,240;  286,935;  285,935
342,331;  303,940;  298,706;  299,075
342,412;  307,440;  307,655;  310,045
342,493;  292,940;  289,415;  293,325
342,575;  323,540;  327,095;  327,355
342,656;  317,240;  318,466;  318,265
342,737;  337,740;  329,836;  330,295
342,818;  308,740;  307,996;  309,015
342,899;  326,640;  314,505;  317,165
342,980;  309,440;  306,695;  310,155
343,061;  310,240;  303,065;  304,715
343,143;  326,940;  319,535;  319,565
343,224;  310,640;  306,706;  305,915
343,305;  304,540;  299,625;  303,115
343,386;  289,940;  297,996;  300,475
343,467;  303,140;  303,155;  305,535
343,548;  305,340;  304,176;  305,935
343,629;  319,540;  316,405;  317,625
343,710;  325,040;  322,766;  321,015
343,791;  322,240;  325,065;  327,935
343,872;  303,940;  298,975;  297,795
343,953;  322,440;  314,826;  316,625
344,034;  316,740;  319,475;  324,485
344,115;  305,940;  304,255;  303,425
344,196;  297,440;  298,935;  302,165
344,277;  299,840;  293,306;  294,615
344,358;  313,340;  304,755;  307,345
344,439;  292,140;  293,975;  294,205
344,520;  310,140;  298,546;  300,975
344,601;  318,340;  314,646;  315,525
344,681;  313,140;  302,426;  303,825
344,762;  286,040;  283,466;  287,625
344,843;  280,240;  275,996;  281,125
344,924;  310,840;  303,635;  306,085
345,005;  292,340;  287,176;  288,725
345,086;  316,840;  307,665;  309,725
345,167;  305,340;  293,986;  295,575
345,247;  329,640;  323,896;  328,905
345,328;  316,940;  315,315;  317,705
345,409;  309,340;  307,056;  309,355
345,490;  307,840;  308,415;  314,245
345,571;  321,640;  304,875;  312,045
345,651;  277,140;  279,456;  279,055
345,732;  317,540;  307,285;  312,275
345,813;  315,640;  311,836;  317,355
345,894;  287,740;  285,785;  287,595
345,974;  315,940;  309,556;  311,845
346,055;  305,440;  296,435;  295,735
346,136;  312,740;  304,405;  306,245
346,216;  328,840;  324,945;  328,565
346,297;  295,840;  306,565;  304,225
346,378;  303,540;  291,996;  294,005
346,458;  311,540;  307,375;  313,405
346,539;  302,440;  302,306;  305,975
346,620;  305,640;  305,815;  306,685
346,700;  299,040;  288,755;  289,765
346,781;  295,640;  284,556;  286,765
346,861;  308,540;  304,336;  307,325
346,942;  305,440;  304,336;  302,715
347,023;  320,440;  317,885;  316,005
347,103;  305,040;  297,396;  302,825
347,184;  299,140;  294,475;  296,785
347,264;  295,940;  294,565;  296,805
347,345;  297,840;  290,526;  295,525
347,425;  293,740;  285,125;  290,565
347,506;  287,640;  283,595;  283,195
347,586;  293,540;  289,725;  292,435
347,667;  308,940;  307,616;  304,445
347,747;  308,740;  311,116;  310,775
347,828;  291,740;  296,486;  296,465
347,908;  307,740;  303,306;  307,175
347,988;  306,040;  298,655;  306,125
348,069;  314,740;  311,056;  311,395
348,149;  309,140;  303,956;  309,065
348,230;  303,440;  309,956;  310,945
348,310;  281,740;  284,185;  285,715
348,390;  285,840;  288,526;  288,625
348,471;  307,640;  303,665;  305,125
348,551;  286,540;  290,695;  293,935
348,632;  298,440;  289,505;  294,065
348,712;  297,540;  292,706;  295,115
348,792;  330,140;  329,836;  329,985
348,873;  284,040;  281,905;  283,045
348,953;  290,240;  289,845;  290,395
349,033;  302,040;  297,466;  299,465
349,113;  283,940;  286,076;  286,905
349,194;  300,940;  301,595;  304,825
349,274;  309,440;  304,796;  307,395
349,354;  308,040;  303,046;  308,435
349,434;  303,940;  300,116;  301,925
349,515;  319,840;  316,486;  322,185
349,595;  303,540;  302,206;  302,035
349,675;  305,940;  305,635;  308,015
349,755;  295,840;  296,746;  297,615
349,835;  301,740;  301,195;  307,695
349,916;  304,940;  298,435;  303,915
349,996;  292,140;  291,105;  291,745
350,076;  312,740;  312,375;  317,645
350,156;  282,240;  284,836;  287,665
350,236;  316,940;  314,116;  311,925
350,316;  297,940;  292,975;  295,765
350,396;  303,740;  305,646;  310,065
350,476;  294,640;  301,826;  304,275
350,556;  298,140;  293,966;  299,935
350,637;  327,340;  321,005;  321,825
350,717;  293,640;  288,445;  291,825
350,797;  306,240;  302,616;  305,905
350,877;  294,040;  289,875;  294,705
350,957;  295,040;  297,635;  300,095
351,037;  289,740;  298,556;  303,455
351,117;  304,040;  296,276;  296,555
351,197;  304,340;  303,366;  306,305
351,277;  309,140;  300,556;  301,575
351,357;  312,040;  308,806;  314,445
351,437;  305,940;  306,105;  307,755
351,516;  318,540;  317,986;  318,355
351,596;  293,540;  292,896;  296,025
351,676;  300,740;  290,405;  294,265
351,756;  330,240;  323,426;  326,135
351,836;  322,540;  313,866;  317,935
351,916;  299,040;  297,905;  298,975
351,996;  304,940;  303,996;  305,265
352,076;  303,940;  303,486;  303,085
352,156;  321,240;  319,556;  320,405
352,235;  296,040;  301,255;  300,955
352,315;  310,140;  312,456;  314,415
352,395;  313,540;  308,206;  309,425
352,475;  316,140;  315,405;  320,955
352,555;  335,640;  330,236;  330,635
352,634;  321,040;  321,956;  326,705
352,714;  307,740;  302,595;  304,055
352,794;  353,240;  354,466;  358,075
352,874;  315,940;  314,685;  317,555
352,953;  341,840;  337,676;  339,095
353,033;  338,140;  319,306;  320,925
353,113;  330,940;  332,135;  336,575
353,193;  323,340;  328,046;  329,935
353,272;  337,340;  333,135;  334,365
353,352;  310,840;  307,035;  311,285
353,432;  347,540;  343,005;  347,495
353,511;  331,640;  326,185;  330,665
353,591;  357,340;  361,616;  362,555
353,671;  333,240;  331,926;  333,015
353,750;  336,440;  332,296;  331,275
353,830;  314,540;  313,646;  317,015
353,909;  348,540;  339,836;  343,655
353,989;  316,440;  317,385;  320,255
354,069;  319,340;  319,456;  319,155
354,148;  331,440;  335,035;  339,585
354,228;  320,640;  315,695;  316,905
354,307;  321,440;  329,405;  332,345
354,387;  328,640;  322,095;  322,965
354,466;  320,340;  311,635;  316,045
354,546;  337,140;  335,135;  337,645
354,625;  326,040;  319,815;  320,355
354,705;  321,040;  324,246;  326,865
354,784;  319,040;  316,445;  318,195
354,864;  316,340;  316,635;  317,385
354,943;  340,040;  333,695;  339,105
355,023;  310,140;  310,996;  312,285
355,102;  362,040;  362,866;  363,435
355,181;  316,140;  315,966;  318,045
355,261;  346,640;  338,056;  342,165
355,340;  300,240;  303,845;  307,115
355,420;  348,840;  340,105;  342,305
355,499;  325,340;  322,975;  325,635
355,578;  322,740;  315,276;  316,885
355,658;  346,440;  332,875;  333,745
355,737;  321,740;  317,576;  319,005
355,816;  312,540;  323,276;  324,605
355,896;  324,240;  316,026;  321,355
355,975;  308,140;  307,355;  310,055
356,054;  314,640;  311,935;  312,455
356,133;  302,340;  290,565;  293,305
356,213;  329,240;  324,845;  324,825
356,292;  311,240;  304,016;  309,325
356,371;  308,740;  314,146;  314,035
356,451;  317,640;  324,755;  327,685
356,530;  346,640;  349,496;  350,795
356,609;  315,440;  311,146;  315,535
356,688;  308,940;  316,475;  316,165
356,767;  310,640;  304,695;  309,855
356,846;  326,440;  327,035;  327,235
356,926;  343,240;  340,016;  343,965
357,005;  320,040;  318,345;  318,565
357,084;  308,540;  304,466;  308,385
357,163;  317,040;  317,706;  317,185
357,242;  321,440;  320,146;  319,515
357,321;  310,040;  314,496;  316,575
357,400;  306,740;  321,236;  318,865
357,479;  317,740;  317,725;  320,795
357,559;  327,140;  321,405;  325,705
357,638;  289,740;  300,616;  298,815
357,717;  319,140;  313,746;  311,555
357,796;  322,240;  329,266;  330,875
357,875;  308,640;  314,466;  313,455
357,954;  309,240;  310,155;  313,855
358,033;  319,340;  323,405;  320,935
358,112;  331,540;  329,966;  328,315
358,191;  326,540;  315,276;  318,965
358,270;  301,740;  295,505;  297,695
358,349;  314,440;  321,625;  323,725
358,428;  324,240;  322,445;  326,125
358,507;  324,340;  321,366;  325,105
358,585;  321,140;  320,355;  325,525
358,664;  344,440;  332,266;  334,505
358,743;  317,340;  323,776;  326,515
358,822;  338,240;  334,475;  338,195
358,901;  304,940;  309,176;  309,505
358,980;  314,940;  310,885;  313,735
359,059;  327,640;  328,616;  332,255
359,138;  334,640;  329,415;  328,565
359,216;  327,040;  322,225;  327,485
359,295;  302,640;  309,475;  309,515
359,374;  335,540;  330,026;  333,455
359,453;  322,740;  316,345;  320,885
359,532;  308,240;  304,526;  308,455
359,610;  320,240;  319,556;  323,285
359,689;  331,640;  331,116;  333,025
359,768;  311,040;  313,706;  315,305
359,847;  306,640;  302,065;  305,385
359,925;  308,640;  304,105;  307,215
360,004;  311,940;  299,565;  302,585
360,083;  314,640;  320,165;  321,795
360,161;  309,840;  305,676;  309,885
360,240;  296,340;  288,725;  291,455
360,319;  328,240;  318,276;  317,225
360,397;  327,740;  324,986;  331,265
360,476;  328,340;  318,296;  324,355
360,555;  348,640;  345,565;  346,835
360,633;  303,240;  304,456;  304,945
360,712;  314,940;  309,056;  311,825
360,790;  339,540;  330,065;  331,185
360,869;  312,440;  310,266;  313,085
360,948;  331,040;  322,466;  322,235
361,026;  308,340;  300,065;  301,245
361,105;  311,040;  306,116;  309,875
361,183;  327,040;  324,725;  326,345
361,262;  308,740;  302,375;  307,465
361,340;  309,640;  305,815;  306,875
361,419;  290,440;  289,896;  290,845
361,497;  351,540;  340,926;  346,955
361,576;  315,140;  317,736;  323,245
361,654;  346,540;  342,736;  343,615
361,733;  306,840;  297,366;  297,305
361,811;  330,940;  329,065;  331,875
361,890;  278,140;  292,595;  293,595
361,968;  319,740;  313,706;  316,715
362,046;  342,340;  335,296;  335,795
362,125;  346,040;  337,435;  340,865
362,203;  317,740;  314,635;  316,745
362,282;  336,740;  328,676;  334,675
362,360;  314,840;  318,315;  323,125
362,438;  310,340;  313,565;  317,495
362,517;  356,240;  357,725;  357,035
362,595;  337,940;  340,956;  345,025
362,673;  337,840;  334,576;  338,035
362,752;  327,140;  326,366;  329,445
362,830;  346,340;  343,155;  338,795
362,908;  328,340;  322,885;  326,315
362,986;  339,540;  333,595;  334,645
363,065;  339,740;  326,405;  330,985
363,143;  371,140;  359,875;  363,525
363,221;  324,540;  313,755;  319,675
363,299;  315,240;  315,845;  315,595
363,378;  331,440;  327,546;  328,495
363,456;  311,840;  304,326;  305,295
363,534;  328,740;  323,996;  327,895
363,612;  340,940;  327,546;  330,285
363,690;  328,840;  337,885;  341,915
363,769;  354,140;  349,336;  354,965
363,847;  338,240;  332,326;  333,935
363,925;  301,140;  303,095;  306,775
364,003;  349,140;  350,866;  351,845
364,081;  332,940;  336,345;  339,765
364,159;  346,340;  331,836;  334,695
364,237;  350,440;  341,276;  343,025
364,315;  332,440;  318,866;  320,765
364,393;  374,840;  350,935;  355,465
364,471;  347,040;  328,185;  329,975
364,549;  354,540;  333,026;  334,495
364,627;  354,640;  323,095;  327,065
364,705;  370,740;  311,135;  310,945
364,783;  444,540;  323,496;  332,235
364,861;  966,540;  331,396;  334,915
364,939; 3507,540;  314,086;  319,855
365,017;  806,040;  306,046;  310,735
365,095;  371,640;  322,116;  324,495
365,173;  377,640;  345,556;  349,605
365,251;  382,440;  341,535;  344,665
365,329;  529,640;  346,466;  345,195
365,407; 1154,540;  318,345;  321,385
365,485;  459,340;  344,826;  348,395
365,563;  358,440;  344,306;  346,815
365,641;  334,440;  331,896;  331,005
365,719;  338,940;  337,095;  336,965
365,796;  342,240;  334,926;  336,075
365,874;  357,740;  347,426;  349,165
365,952;  323,040;  309,516;  312,925
366,030;  346,640;  334,866;  333,525
366,108;  365,840;  326,345;  328,575
366,185;  618,140;  338,396;  343,695
366,263;  880,240;  334,646;  340,035
366,341;  387,740;  334,125;  339,925
366,419;  342,040;  331,535;  331,355
366,496;  347,340;  342,655;  345,225
366,574;  339,240;  325,826;  329,315
366,652;  357,940;  345,296;  349,635
366,730;  372,040;  365,475;  368,065
366,807;  340,040;  330,845;  334,945
366,885;  328,040;  321,135;  327,175
366,963;  323,540;  329,016;  331,635
367,040;  363,140;  345,815;  352,465
367,118;  333,640;  321,875;  325,205
367,196;  345,240;  341,896;  344,715
367,273;  337,340;  335,845;  338,245
367,351;  335,640;  328,155;  331,125
367,428;  362,940;  355,016;  356,915
367,506;  343,540;  329,225;  333,905
367,584;  360,240;  360,216;  363,085
367,661;  347,440;  341,785;  346,585
367,739;  338,740;  328,466;  334,835
367,816;  331,240;  320,345;  324,175
367,894;  338,640;  339,146;  345,755
367,971;  347,140;  329,885;  333,335
368,049;  351,440;  349,586;  353,435
368,126;  319,840;  314,625;  317,265
368,204;  362,840;  351,836;  352,775
368,281;  361,840;  353,225;  355,775
368,359;  350,240;  348,806;  354,965
368,436;  344,840;  342,385;  348,785
368,514;  357,940;  349,646;  351,035
368,591;  349,040;  343,486;  348,405
368,668;  348,440;  347,486;  351,455
368,746;  356,240;  358,556;  362,125
368,823;  336,740;  342,405;  345,515
368,901;  347,240;  339,046;  341,025
368,978;  361,540;  354,975;  361,925
369,055;  351,140;  343,826;  347,145
369,133;  360,440;  367,046;  368,725
369,210;  341,540;  339,206;  342,185
369,287;  375,140;  367,986;  371,205
369,365;  370,440;  368,896;  369,715
369,442;  359,540;  346,826;  351,135
369,519;  313,740;  306,396;  310,475
369,596;  376,940;  369,005;  372,695
369,674;  338,940;  336,526;  336,705
369,751;  371,540;  368,005;  369,405
369,828;  350,540;  350,366;  351,255
369,905;  360,840;  354,796;  358,705
369,983;  340,140;  329,826;  336,485
370,060;  336,140;  335,185;  336,165
370,137;  369,740;  371,595;  373,975
370,214;  344,640;  340,246;  340,845
370,291;  352,740;  347,845;  351,965
370,368;  362,740;  345,426;  349,675
370,446;  338,240;  335,716;  337,375
370,523;  337,040;  331,586;  338,615
370,600;  360,140;  350,706;  356,355
370,677;  355,240;  345,826;  349,525
370,754;  344,940;  341,706;  344,655
370,831;  344,340;  344,885;  347,665
370,908;  382,140;  368,556;  369,945
370,985;  329,340;  326,206;  327,885
371,062;  353,740;  346,635;  347,955
371,139;  367,740;  362,125;  364,815
371,216;  357,740;  357,496;  359,475
371,293;  352,440;  350,576;  350,305
371,370;  332,340;  328,806;  332,395
371,447;  356,940;  354,736;  355,835
371,524;  375,940;  374,685;  378,505
371,601;  378,840;  371,556;  374,285
371,678;  373,740;  374,306;  375,345
371,755;  352,140;  348,526;  348,275
371,832;  375,240;  374,526;  377,175
371,909;  339,640;  342,065;  344,605
371,986;  387,340;  376,505;  379,065
372,063;  348,140;  346,195;  348,745
372,140;  359,540;  354,056;  357,495
372,216;  363,040;  360,225;  360,935
372,293;  347,940;  341,945;  344,805
372,370;  378,140;  370,236;  372,635
372,447;  362,240;  361,646;  361,385
372,524;  351,340;  349,725;  352,115
372,601;  359,240;  353,236;  356,005
372,677;  337,940;  339,586;  339,035
372,754;  354,540;  347,516;  350,955
372,831;  353,140;  354,716;  356,955
372,908;  365,340;  368,496;  364,795
372,984;  350,040;  349,246;  356,035
373,061;  343,940;  342,046;  342,845
373,138;  350,140;  349,986;  354,465
373,215;  346,240;  345,155;  346,585
373,291;  342,040;  347,556;  353,415
373,368;  346,940;  353,516;  357,375
373,445;  346,740;  348,285;  348,395
373,521;  351,940;  349,216;  353,935
373,598;  334,840;  341,766;  343,845
373,675;  337,540;  332,646;  334,115
373,751;  351,640;  345,375;  354,195
373,828;  350,840;  341,076;  346,375
373,904;  399,440;  387,225;  391,935
373,981;  332,540;  332,516;  333,585
374,057;  356,940;  353,306;  355,945
374,134;  334,140;  331,706;  334,435
374,211;  352,140;  348,826;  351,835
374,287;  342,640;  338,565;  339,035
374,364;  365,640;  362,426;  365,335
374,440;  324,140;  319,035;  321,205
374,517;  365,040;  361,625;  366,995
374,593;  331,940;  326,896;  326,865
374,670;  345,240;  340,095;  342,905
374,746;  349,540;  346,915;  349,135
374,823;  370,340;  369,255;  368,775
374,899;  365,340;  366,836;  366,475
374,975;  341,640;  336,035;  341,495
375,052;  336,340;  319,776;  326,175
375,128;  322,640;  325,956;  331,675
375,205;  358,240;  353,665;  355,605
375,281;  337,240;  337,296;  336,395
375,357;  373,140;  361,026;  364,245
375,434;  339,640;  331,986;  338,045
375,510;  347,140;  347,755;  353,175
375,586;  354,840;  347,486;  349,845
375,663;  323,840;  321,926;  323,515
375,739;  360,440;  355,716;  358,675
375,815;  353,240;  346,366;  346,765
375,892;  355,540;  344,516;  348,555
375,968;  338,840;  331,605;  336,855
376,044;  352,840;  335,866;  339,405
376,120;  341,740;  332,535;  339,615
376,197;  356,940;  348,466;  352,185
376,273;  341,240;  340,516;  341,095
376,349;  388,040;  378,366;  379,125
376,425;  371,840;  362,935;  364,425
376,501;  345,140;  344,225;  347,555
376,578;  378,440;  362,885;  363,255
376,654;  387,840;  383,866;  382,945
376,730;  360,740;  360,266;  364,005
376,806;  379,840;  375,185;  376,845
376,882;  389,340;  377,176;  378,355
376,958;  375,840;  376,706;  373,325
377,034;  313,240;  319,695;  317,895
377,111;  373,740;  368,826;  369,285
377,187;  392,440;  390,845;  391,825
377,263;  387,640;  383,885;  384,725
377,339;  337,940;  341,445;  346,375
377,415;  361,440;  366,366;  365,685
377,491;  343,740;  342,885;  347,505
377,567;  372,440;  359,755;  360,685
377,643;  372,340;  380,076;  378,785
377,719;  368,340;  363,706;  367,845
377,795;  344,140;  345,725;  349,165
377,871;  373,640;  367,866;  370,355
377,947;  349,140;  348,236;  351,215
378,023;  345,640;  345,855;  349,075
378,099;  346,640;  349,035;  350,465
378,174;  363,840;  374,176;  374,825
378,250;  373,140;  363,105;  366,955
378,326;  371,940;  366,255;  370,045
378,402;  367,740;  357,685;  360,315
378,478;  368,740;  361,605;  365,295
378,554;  373,640;  370,396;  375,075
378,630;  367,640;  365,225;  365,285
378,706;  357,140;  358,076;  357,335
378,781;  390,340;  390,875;  394,875
378,857;  367,740;  363,185;  366,505
378,933;  369,740;  360,315;  365,855
379,009;  357,340;  351,426;  351,035
379,085;  393,140;  393,826;  391,725
379,160;  380,240;  377,246;  378,485
379,236;  367,640;  374,195;  376,655
379,312;  363,640;  359,915;  361,725
379,387;  348,740;  354,486;  355,105
379,463;  363,640;  359,836;  363,685
379,539;  371,440;  370,475;  373,395
379,615;  366,340;  359,056;  358,495
379,690;  399,040;  395,035;  398,755
379,766;  377,540;  373,276;  379,335
379,842;  388,040;  391,105;  391,375
379,917;  381,240;  380,935;  388,225
379,993;  371,040;  368,366;  373,385
380,068;  369,240;  359,236;  361,755
380,144;  383,540;  381,086;  383,405
380,220;  384,640;  382,086;  386,535
380,295;  357,440;  353,005;  355,035
380,371;  363,940;  359,935;  361,545
380,446;  387,840;  377,165;  381,125
380,522;  351,440;  348,766;  349,425
380,597;  364,340;  360,486;  359,965
380,673;  392,340;  390,456;  394,425
380,748;  360,140;  358,046;  358,445
380,824;  366,440;  367,676;  369,935
380,899;  397,440;  386,216;  388,425
380,975;  352,640;  365,475;  366,905
381,050;  357,840;  352,806;  352,825
381,126;  371,940;  370,526;  373,695
381,201;  410,740;  398,806;  402,495
381,277;  379,740;  373,435;  374,795
381,352;  391,940;  388,105;  390,855
381,427;  376,440;  372,586;  376,025
381,503;  383,640;  378,896;  379,385
381,578;  367,140;  360,605;  365,515
381,653;  376,040;  368,776;  372,375
381,729;  356,540;  361,535;  360,945
381,804;  371,440;  367,475;  368,805
381,879;  378,940;  383,306;  386,055
381,955;  344,540;  354,396;  356,545
382,030;  360,140;  356,556;  357,225
382,105;  377,340;  375,586;  372,555
382,181;  375,140;  367,466;  371,255
382,256;  373,140;  378,116;  374,765
382,331;  374,240;  367,216;  371,745
382,406;  356,040;  353,266;  357,745
382,482;  355,440;  361,315;  357,655
382,557;  366,640;  363,526;  366,745
382,632;  368,040;  370,595;  371,585
382,707;  367,140;  361,135;  365,615
382,782;  370,240;  361,516;  366,275
382,857;  362,040;  358,996;  361,035
382,933;  358,240;  351,776;  352,995
383,008;  344,140;  344,065;  345,165
383,083;  387,040;  376,866;  379,215
383,158;  390,040;  378,866;  381,615
383,233;  364,140;  362,385;  363,105
383,308;  375,540;  359,875;  362,675
383,383;  404,840;  389,445;  391,785
383,458;  367,240;  361,135;  360,475
383,533;  351,040;  342,456;  344,625
383,608;  400,940;  387,885;  390,385
383,683;  382,240;  385,046;  389,585
383,758;  372,940;  380,285;  380,925
383,833;  376,740;  370,296;  371,015
383,908;  352,140;  343,206;  342,165
383,983;  355,240;  346,296;  350,755
384,058;  366,240;  355,246;  357,655
384,133;  378,640;  368,185;  368,575
384,208;  372,540;  376,796;  379,565
384,283;  352,540;  348,736;  351,825
384,358;  384,040;  381,845;  387,485
384,433;  352,740;  357,496;  357,355
384,508;  379,140;  368,966;  373,895
384,583;  373,240;  373,725;  375,265
384,658;  382,840;  367,915;  371,275
384,732;  334,740;  339,456;  339,705
384,807;  372,340;  366,935;  369,005
384,882;  382,340;  371,246;  373,145
384,957;  376,240;  368,095;  371,985
385,032;  372,940;  375,426;  376,555
385,106;  377,440;  370,216;  371,515
385,181;  363,240;  351,385;  357,155
385,256;  357,640;  363,565;  366,745
385,331;  380,140;  371,935;  373,255
385,405;  380,040;  380,975;  381,445
385,480;  373,740;  365,695;  366,715
385,555;  408,240;  399,306;  400,405
385,630;  402,440;  390,956;  395,935
385,704;  374,640;  374,056;  377,105
385,779;  375,640;  364,405;  364,855
385,854;  369,440;  368,746;  369,975
385,928;  368,040;  363,016;  365,315
386,003;  407,740;  402,586;  405,115
386,078;  382,140;  372,466;  374,995
386,152;  407,740;  401,456;  401,815
386,227;  363,740;  357,646;  361,225
386,301;  383,640;  378,725;  380,385
386,376;  364,340;  348,695;  355,015
386,450;  385,840;  378,616;  381,145
386,525;  381,640;  373,556;  377,655
386,600;  390,640;  385,746;  385,925
386,674;  368,340;  364,076;  367,315
386,749;  378,640;  375,095;  381,315
386,823;  385,140;  377,435;  382,095
386,898;  377,840;  379,766;  380,535
386,972;  394,440;  380,966;  385,985
387,047;  381,540;  369,776;  374,355
387,121;  381,640;  379,695;  380,335
387,195;  359,840;  357,875;  359,895
387,270;  386,540;  385,625;  385,415
387,344;  403,640;  404,405;  407,055
387,419;  389,340;  385,665;  393,195
387,493;  385,140;  377,776;  379,825
387,567;  355,140;  355,005;  358,475
387,642;  410,640;  403,586;  405,945
387,716;  379,440;  369,565;  372,245
387,790;  367,440;  367,706;  371,225
387,865;  373,940;  372,806;  373,715
387,939;  399,040;  403,005;  404,415
388,013;  386,140;  384,806;  386,145
388,088;  370,440;  368,655;  370,085
388,162;  372,940;  370,135;  371,835
388,236;  378,040;  372,456;  375,275
388,310;  370,440;  361,966;  364,475
388,385;  401,140;  397,185;  400,845
388,459;  380,440;  379,996;  380,235
388,533;  358,840;  363,676;  362,565
388,607;  370,140;  366,776;  365,955
388,682;  366,540;  374,806;  375,745
388,756;  362,340;  355,035;  360,825
388,830;  385,340;  390,255;  394,075
388,904;  387,940;  378,276;  385,365
388,978;  368,540;  369,535;  370,165
389,052;  369,440;  375,396;  377,225
389,126;  373,340;  370,435;  376,195
389,200;  367,040;  372,665;  377,205
389,275;  361,640;  369,266;  367,695
389,349;  372,040;  374,695;  373,065
389,423;  371,640;  369,565;  369,375
389,497;  376,440;  380,966;  383,775
389,571;  365,940;  368,665;  370,175
389,645;  383,840;  376,806;  379,805
389,719;  373,040;  369,396;  372,955
389,793;  345,040;  346,576;  348,725
389,867;  403,240;  398,035;  402,955
389,941;  380,140;  375,375;  377,215
390,015;  369,740;  361,135;  364,515
390,089;  364,340;  360,426;  362,085
390,163;  385,340;  372,456;  375,935
390,237;  387,940;  375,435;  379,295
390,310;  378,240;  379,276;  382,155
390,384;  386,040;  376,546;  383,625
390,458;  404,540;  400,826;  403,825
390,532;  380,740;  383,496;  386,725
390,606;  374,340;  365,945;  369,265
390,680;  368,640;  366,466;  368,115
390,754;  368,940;  366,385;  368,915
390,827;  386,240;  388,276;  392,645
390,901;  397,940;  391,855;  396,215
390,975;  372,240;  368,905;  370,295
391,049;  367,740;  366,366;  364,315
391,123;  366,940;  362,685;  363,545
391,196;  364,240;  367,635;  367,855
391,270;  376,940;  378,426;  377,835
391,344;  363,140;  360,056;  359,585
391,418;  370,240;  372,975;  372,155
391,491;  362,740;  362,655;  363,995
391,565;  364,840;  362,065;  366,105
391,639;  398,640;  394,345;  397,875
391,712;  383,440;  385,815;  384,375
391,786;  380,340;  382,646;  386,785
391,860;  376,140;  369,385;  370,925
391,933;  380,840;  369,935;  371,115
392,007;  375,040;  371,355;  380,875
392,081;  400,340;  396,456;  399,955
392,154;  383,240;  377,845;  383,895
392,228;  391,440;  391,366;  394,685
392,301;  384,040;  376,266;  381,275
392,375;  397,940;  386,076;  389,995
392,448;  385,840;  379,516;  384,445
392,522;  378,440;  376,236;  379,965
392,595;  378,840;  370,105;  374,245
392,669;  377,240;  376,116;  379,675
392,742;  398,540;  390,975;  396,915
392,816;  397,540;  397,296;  400,205
392,889;  388,940;  392,746;  396,605
392,963;  398,140;  409,095;  409,745
393,036;  382,540;  385,345;  386,785
393,110;  399,140;  391,155;  393,885
393,183;  408,840;  400,836;  405,685
393,257;  422,340;  415,456;  417,745
393,330;  373,240;  365,845;  369,745
393,403;  394,640;  390,486;  395,585
393,477;  365,040;  355,845;  358,875
393,550;  401,940;  390,306;  395,545
393,623;  386,040;  388,396;  388,295
393,697;  413,540;  406,056;  406,835
393,770;  374,140;  376,556;  379,065
393,843;  414,540;  402,996;  406,915
393,917;  406,040;  394,216;  398,485
393,990;  413,440;  409,996;  410,125
394,063;  397,540;  386,855;  392,225
394,136;  399,340;  388,635;  391,675
394,210;  393,240;  393,336;  395,655
394,283;  408,940;  402,785;  407,175
394,356;  396,040;  399,165;  399,175
394,429;  402,840;  396,935;  398,825
394,502;  388,640;  382,016;  383,895
394,576;  428,340;  414,125;  414,715
394,649;  379,340;  378,776;  377,865
394,722;  410,340;  400,896;  403,785
394,795;  405,240;  408,306;  413,185
394,868;  390,740;  384,135;  385,985
394,941;  375,840;  376,435;  375,265
395,014;  418,540;  417,056;  420,205
395,088;  397,640;  398,956;  399,175
395,161;  410,040;  395,466;  398,685
395,234;  421,340;  409,236;  410,735
395,307;  405,840;  402,236;  405,525
395,380;  398,740;  384,736;  385,325
395,453;  442,440;  436,845;  437,285
395,526;  415,040;  408,385;  412,495
395,599;  430,840;  426,926;  430,645
395,672;  410,340;  394,586;  394,895
395,745;  419,840;  417,125;  421,075
395,818;  384,540;  376,306;  378,615
395,891;  393,540;  385,635;  387,695
395,964;  424,640;  415,896;  414,885
396,036;  390,940;  387,486;  384,175
396,109;  402,640;  392,076;  395,785
396,182;  407,640;  396,766;  399,545
396,255;  399,040;  399,225;  398,845
396,328;  416,440;  410,065;  411,075
396,401;  375,840;  370,746;  371,295
396,474;  393,140;  381,086;  381,505
396,547;  403,840;  397,046;  400,645
396,619;  396,640;  390,755;  390,525
396,692;  407,840;  404,866;  411,355
396,765;  376,740;  370,616;  372,985
396,838;  389,340;  388,225;  388,295
396,911;  373,740;  371,266;  373,155
396,983;  386,440;  392,496;  392,385
397,056;  359,240;  372,355;  374,095
397,129;  387,140;  387,796;  389,615
397,201;  394,040;  391,556;  389,605
397,274;  383,040;  385,366;  389,335
397,347;  367,340;  363,345;  363,665
397,420;  387,240;  384,605;  387,195
397,492;  388,740;  388,296;  388,685
397,565;  368,540;  375,915;  379,595
397,637;  381,940;  369,366;  372,085
397,710;  353,840;  351,586;  350,295
397,783;  414,940;  412,855;  414,805
397,855;  347,840;  345,345;  347,055
397,928;  377,140;  368,336;  371,095
398,000;  398,540;  395,866;  396,635
398,073;  387,440;  386,546;  384,745
398,146;  380,340;  376,706;  377,295
398,218;  392,340;  390,255;  393,135
398,291;  390,240;  385,806;  387,915
398,363;  389,240;  381,755;  384,505
398,436;  376,640;  369,855;  374,675
398,508;  387,640;  383,266;  385,345
398,581;  375,040;  378,206;  380,565
398,653;  376,040;  374,255;  373,825
398,726;  382,340;  378,535;  383,385
398,798;  388,940;  383,306;  387,885
398,870;  400,140;  391,116;  396,905
398,943;  376,340;  366,236;  369,775
399,015;  357,740;  365,676;  368,815
399,088;  392,240;  389,655;  388,435
399,160;  356,540;  368,076;  368,815
399,232;  351,640;  350,405;  352,095
399,305;  371,040;  368,435;  372,935
399,377;  376,340;  377,905;  377,535
399,449;  383,040;  386,246;  388,735
399,522;  427,040;  421,875;  424,965
399,594;  379,940;  364,576;  365,315
399,666;  383,740;  382,625;  385,235
399,738;  375,140;  373,336;  375,225
399,811;  383,940;  376,736;  377,025
399,883;  396,740;  386,105;  388,295
399,955;  385,240;  389,855;  389,195
400,027;  342,840;  345,945;  349,545
400,100;  410,140;  407,366;  409,275
400,172;  350,140;  348,296;  349,645
400,244;  384,140;  378,225;  381,195
400,316;  401,440;  393,016;  393,505
400,388;  395,040;  389,385;  393,005
400,460;  376,440;  359,306;  364,605
400,532;  352,340;  350,826;  351,835
400,605;  386,740;  377,736;  384,975
400,677;  406,840;  402,285;  404,675
400,749;  401,540;  395,685;  398,125
400,821;  393,440;  385,956;  388,105
400,893;  378,140;  379,445;  382,305
400,965;  393,140;  386,755;  392,785
401,037;  389,940;  387,565;  392,525
401,109;  373,940;  370,725;  373,835
401,181;  388,540;  380,716;  385,485

