pru
Integration time [ms]:   0,150
Averaging Nr. [scans]: 50
Smoothing Nr. [pixels]: 0
Data measured with spectrometer [name]: 7416147SP
Wave   ;Sample   ;Dark     ;Reference
[nm]   ;[counts] ;[counts] ;[counts] 

230,218;  295,720;  290,315;  293,845
230,311;  321,760;  319,885;  318,565
230,404;  313,361;  309,855;  312,875
230,497;  320,081;  317,385;  315,715
230,591;  341,461;  333,426;  335,355
230,684;  328,201;  326,486;  329,355
230,777;  313,220;  311,736;  314,765
230,870;  312,600;  313,326;  316,955
230,964;  311,500;  310,885;  314,745
231,057;  342,820;  342,496;  343,475
231,150;  333,961;  331,695;  332,715
231,243;  330,581;  330,635;  332,775
231,336;  333,301;  331,375;  331,335
231,430;  318,260;  316,496;  317,715
231,523;  327,060;  324,516;  326,785
231,616;  306,341;  305,445;  309,685
231,709;  343,921;  328,065;  330,025
231,802;  318,201;  300,945;  301,885
231,895;  313,260;  299,836;  300,315
231,988;  327,401;  315,655;  318,535
232,082;  313,741;  298,155;  302,425
232,175;  315,660;  302,155;  306,175
232,268;  316,901;  301,266;  305,345
232,361;  312,600;  304,806;  307,515
232,454;  329,681;  322,396;  323,025
232,547;  333,880;  318,716;  322,655
232,640;  309,540;  296,766;  294,035
232,733;  331,401;  314,116;  323,045
232,826;  307,100;  288,915;  295,035
232,919;  326,660;  313,826;  312,665
233,012;  305,220;  293,646;  292,775
233,105;  312,921;  294,766;  298,815
233,199;  317,921;  299,875;  304,045
233,292;  313,081;  293,475;  296,235
233,385;  274,040;  263,426;  262,225
233,478;  308,260;  293,885;  295,685
233,571;  336,000;  324,586;  327,675
233,664;  317,320;  305,996;  308,435
233,757;  294,741;  280,796;  281,395
233,850;  293,141;  282,255;  285,825
233,943;  307,681;  290,896;  292,195
234,035;  317,760;  300,576;  302,355
234,128;  291,901;  281,836;  283,945
234,221;  311,160;  297,665;  298,245
234,314;  324,141;  304,915;  311,975
234,407;  323,861;  302,935;  309,075
234,500;  297,181;  277,625;  281,875
234,593;  302,060;  287,095;  285,735
234,686;  303,421;  293,746;  293,765
234,779;  306,121;  291,266;  293,165
234,872;  296,861;  281,806;  281,565
234,965;  306,440;  292,806;  290,795
235,058;  290,421;  274,155;  276,215
235,150;  305,820;  285,776;  290,805
235,243;  301,741;  282,736;  284,425
235,336;  316,980;  300,695;  304,545
235,429;  286,480;  273,646;  272,515
235,522;  348,100;  330,996;  335,445
235,615;  279,081;  262,276;  265,145
235,707;  292,160;  282,415;  282,335
235,800;  300,560;  289,815;  290,515
235,893;  300,780;  289,956;  292,955
235,986;  312,040;  298,266;  299,325
236,079;  298,341;  286,586;  291,125
236,171;  289,760;  270,725;  271,865
236,264;  323,361;  312,635;  313,275
236,357;  304,141;  290,986;  293,865
236,450;  324,241;  315,225;  317,215
236,542;  282,500;  267,065;  272,575
236,635;  329,361;  313,546;  316,385
236,728;  300,641;  285,516;  288,115
236,821;  297,581;  280,165;  283,715
236,913;  294,440;  277,896;  276,315
237,006;  286,341;  271,605;  275,435
237,099;  300,260;  283,896;  285,575
237,191;  314,760;  298,796;  300,225
237,284;  282,141;  267,896;  272,995
237,377;  309,241;  294,725;  297,495
237,470;  302,741;  285,415;  287,875
237,562;  295,160;  276,866;  275,785
237,655;  337,461;  320,945;  324,565
237,747;  313,440;  292,695;  295,845
237,840;  330,181;  313,086;  314,435
237,933;  313,861;  300,445;  301,555
238,025;  321,361;  301,415;  301,595
238,118;  299,141;  282,456;  287,755
238,211;  285,021;  268,155;  272,375
238,303;  285,160;  272,296;  273,415
238,396;  282,961;  268,065;  271,945
238,488;  304,880;  292,625;  291,075
238,581;  301,260;  287,855;  289,445
238,673;  301,461;  285,766;  286,865
238,766;  303,320;  282,635;  283,185
238,859;  289,560;  273,586;  276,105
238,951;  296,440;  281,095;  282,835
239,044;  293,701;  276,496;  279,525
239,136;  285,841;  269,035;  271,705
239,229;  298,560;  280,665;  283,435
239,321;  288,160;  271,255;  276,105
239,414;  306,820;  289,875;  292,345
239,506;  302,500;  284,625;  290,655
239,599;  330,621;  316,315;  315,935
239,691;  305,380;  287,945;  287,755
239,784;  321,901;  301,926;  304,175
239,876;  308,301;  295,005;  294,715
239,969;  302,880;  284,426;  288,635
240,061;  287,000;  269,505;  272,655
240,153;  296,921;  276,776;  278,405
240,246;  308,720;  287,635;  287,925
240,338;  323,961;  315,285;  314,405
240,431;  287,540;  268,896;  270,455
240,523;  286,581;  269,315;  270,665
240,615;  316,581;  299,086;  301,495
240,708;  327,940;  309,945;  312,145
240,800;  303,040;  286,956;  289,175
240,893;  289,540;  272,216;  274,965
240,985;  307,380;  286,116;  289,995
241,077;  285,581;  269,866;  271,905
241,170;  318,241;  300,355;  300,805
241,262;  305,641;  293,695;  290,825
241,354;  272,260;  252,305;  253,985
241,447;  297,021;  281,326;  283,905
241,539;  285,780;  266,746;  270,745
241,631;  333,141;  314,366;  317,275
241,724;  279,521;  259,135;  260,655
241,816;  296,160;  279,385;  281,545
241,908;  297,361;  275,056;  280,445
242,000;  294,540;  277,625;  279,505
242,093;  297,341;  277,725;  280,745
242,185;  293,421;  277,736;  277,535
242,277;  290,160;  274,695;  277,115
242,369;  301,560;  282,146;  286,335
242,462;  292,581;  274,405;  274,215
242,554;  297,741;  277,146;  281,105
242,646;  301,021;  283,146;  286,575
242,738;  322,000;  303,255;  307,195
242,830;  280,861;  259,026;  260,415
242,923;  316,361;  297,035;  299,015
243,015;  280,320;  268,655;  266,675
243,107;  285,421;  267,676;  271,255
243,199;  290,780;  276,345;  278,365
243,291;  287,940;  272,125;  276,215
243,383;  269,841;  254,826;  256,465
243,476;  283,701;  269,435;  268,005
243,568;  301,861;  280,915;  284,885
243,660;  291,560;  273,385;  279,575
243,752;  295,421;  279,796;  287,275
243,844;  315,141;  300,766;  302,705
243,936;  309,500;  291,956;  293,555
244,028;  319,820;  304,796;  307,475
244,120;  266,861;  254,346;  255,525
244,212;  307,660;  293,826;  293,755
244,305;  285,181;  268,496;  267,935
244,397;  305,581;  289,165;  291,675
244,489;  318,681;  304,276;  307,925
244,581;  319,380;  299,255;  300,795
244,673;  296,581;  281,806;  283,225
244,765;  302,540;  286,035;  290,565
244,857;  300,361;  284,986;  287,335
244,949;  304,141;  283,956;  284,945
245,041;  266,361;  250,865;  255,005
245,133;  311,480;  293,695;  296,625
245,225;  297,380;  277,915;  280,695
245,317;  301,701;  289,456;  289,025
245,409;  279,581;  263,755;  269,375
245,501;  304,040;  288,496;  293,045
245,593;  305,480;  286,255;  290,055
245,685;  301,641;  285,405;  288,735
245,776;  300,880;  285,945;  287,235
245,868;  283,160;  271,276;  272,565
245,960;  279,141;  265,875;  263,405
246,052;  323,320;  310,766;  310,445
246,144;  305,841;  294,165;  294,205
246,236;  297,801;  283,576;  283,565
246,328;  307,361;  291,345;  293,965
246,420;  296,921;  279,746;  280,855
246,512;  323,100;  308,236;  310,455
246,604;  296,760;  282,526;  286,825
246,695;  289,361;  273,345;  272,135
246,787;  309,021;  293,526;  301,145
246,879;  308,100;  292,716;  297,145
246,971;  310,201;  299,276;  300,965
247,063;  290,301;  273,255;  278,605
247,155;  317,040;  294,516;  297,195
247,246;  298,720;  283,266;  283,715
247,338;  301,461;  288,116;  294,265
247,430;  317,940;  299,945;  303,475
247,522;  319,260;  297,546;  300,555
247,613;  315,060;  296,586;  299,675
247,705;  306,500;  286,896;  288,445
247,797;  324,921;  305,776;  307,475
247,889;  317,560;  294,706;  295,475
247,980;  325,581;  285,676;  291,995
248,072;  333,081;  282,845;  285,895
248,164;  346,280;  293,216;  298,385
248,256;  305,021;  271,366;  274,105
248,347;  328,681;  309,785;  311,065
248,439;  300,600;  283,165;  282,675
248,531;  321,701;  303,885;  304,835
248,622;  323,361;  307,206;  308,325
248,714;  297,560;  276,945;  278,365
248,806;  312,401;  293,655;  298,015
248,897;  311,820;  291,535;  292,985
248,989;  278,320;  263,956;  263,855
249,081;  302,560;  283,355;  284,905
249,172;  310,540;  289,926;  295,135
249,264;  293,361;  272,076;  273,435
249,356;  289,241;  269,326;  273,745
249,447;  300,100;  282,176;  284,525
249,539;  299,021;  283,086;  284,645
249,630;  310,040;  289,875;  288,495
249,722;  333,040;  313,276;  315,395
249,813;  303,060;  280,496;  284,125
249,905;  311,621;  289,426;  293,665
249,997;  301,201;  281,445;  280,615
250,088;  302,440;  282,255;  288,985
250,180;  304,880;  283,695;  284,575
250,271;  300,560;  281,195;  280,335
250,363;  339,841;  319,105;  320,755
250,454;  295,921;  273,035;  275,615
250,546;  311,480;  285,926;  289,415
250,637;  283,641;  264,445;  261,845
250,729;  290,320;  266,505;  269,555
250,820;  316,581;  289,915;  292,965
250,912;  291,301;  262,355;  267,085
251,003;  300,681;  278,396;  280,475
251,095;  306,160;  282,086;  284,555
251,186;  297,480;  271,415;  274,775
251,277;  300,521;  271,986;  275,265
251,369;  301,121;  275,975;  275,105
251,460;  302,760;  271,456;  273,815
251,552;  312,741;  278,475;  279,655
251,643;  304,361;  268,796;  267,375
251,735;  308,100;  265,246;  267,375
251,826;  297,280;  258,016;  263,245
251,917;  325,741;  278,035;  279,115
252,009;  326,720;  273,396;  275,605
252,100;  337,741;  281,426;  283,345
252,191;  352,741;  289,996;  292,015
252,283;  344,480;  265,095;  267,705
252,374;  367,401;  278,296;  278,375
252,465;  390,600;  295,405;  298,605
252,557;  393,681;  283,576;  286,365
252,648;  384,440;  265,146;  268,635
252,739;  420,320;  280,516;  282,125
252,831;  417,380;  270,836;  280,355
252,922;  457,260;  282,296;  280,045
253,013;  500,681;  273,956;  284,285
253,104;  553,141;  270,076;  270,335
253,196;  657,341;  271,366;  271,175
253,287;  811,760;  281,836;  277,135
253,378; 1177,321;  276,276;  277,975
253,469; 3740,160;  272,385;  276,445
253,561;20631,500;  273,496;  278,855
253,652;40506,801;  282,266;  280,015
253,743; 6604,300;  276,216;  280,985
253,834;  616,500;  259,146;  265,875
253,926;  493,621;  262,605;  267,485
254,017;  475,141;  284,236;  290,235
254,108;  448,780;  291,836;  290,565
254,199;  435,241;  285,326;  291,185
254,290;  433,801;  312,725;  313,865
254,381;  409,820;  287,076;  291,155
254,472;  414,181;  291,935;  300,495
254,564;  414,201;  312,766;  307,565
254,655;  393,921;  304,755;  308,105
254,746;  344,760;  264,896;  264,025
254,837;  368,220;  293,105;  298,435
254,928;  356,780;  266,836;  271,975
255,019;  364,241;  283,505;  286,805
255,110;  369,841;  300,165;  301,665
255,201;  351,880;  281,155;  287,655
255,292;  375,961;  312,706;  316,275
255,383;  344,940;  275,785;  275,725
255,474;  341,780;  273,306;  273,095
255,566;  349,861;  283,926;  286,645
255,657;  347,440;  298,556;  302,445
255,748;  309,660;  271,415;  278,125
255,839;  320,320;  280,695;  282,485
255,930;  329,380;  287,866;  289,735
256,021;  340,361;  298,845;  298,115
256,112;  321,040;  278,456;  278,735
256,203;  345,141;  311,866;  313,365
256,294;  330,060;  293,496;  299,575
256,384;  311,121;  270,565;  275,715
256,475;  320,540;  290,996;  294,595
256,566;  309,440;  281,246;  287,825
256,657;  300,100;  278,945;  278,915
256,748;  304,021;  281,285;  284,675
256,839;  289,100;  274,426;  273,555
256,930;  300,141;  279,165;  283,055
257,021;  324,961;  304,155;  306,465
257,112;  322,581;  304,926;  309,235
257,203;  279,741;  258,445;  259,825
257,294;  277,160;  254,465;  262,175
257,385;  308,220;  288,526;  294,205
257,475;  296,260;  279,135;  278,545
257,566;  310,621;  287,586;  292,255
257,657;  287,100;  269,595;  270,025
257,748;  290,760;  275,935;  276,095
257,839;  297,820;  287,915;  286,025
257,930;  303,301;  285,736;  290,395
258,020;  282,581;  269,716;  271,535
258,111;  278,521;  262,225;  263,255
258,202;  303,720;  288,326;  289,935
258,293;  295,741;  284,655;  285,305
258,384;  320,121;  305,595;  307,665
258,474;  304,641;  288,676;  291,995
258,565;  278,621;  271,635;  273,435
258,656;  308,021;  292,966;  295,145
258,747;  289,720;  271,475;  275,425
258,837;  288,220;  274,246;  273,695
258,928;  290,280;  275,785;  278,605
259,019;  278,461;  268,415;  270,595
259,109;  277,720;  269,685;  269,425
259,200;  299,760;  286,105;  289,815
259,291;  283,641;  269,975;  271,655
259,381;  301,720;  293,026;  295,635
259,472;  302,521;  295,796;  296,545
259,563;  318,060;  303,065;  305,845
259,653;  290,160;  278,296;  281,385
259,744;  276,260;  268,826;  267,735
259,835;  311,841;  300,975;  302,815
259,925;  285,720;  271,505;  277,075
260,016;  300,181;  286,746;  287,585
260,107;  270,060;  258,035;  264,715
260,197;  293,461;  283,975;  286,325
260,288;  291,280;  274,565;  279,155
260,378;  282,361;  267,195;  271,275
260,469;  300,121;  285,915;  288,765
260,560;  281,000;  266,146;  269,495
260,650;  284,581;  271,736;  275,665
260,741;  284,801;  276,366;  279,035
260,831;  286,320;  272,855;  275,905
260,922;  277,741;  266,206;  269,545
261,012;  280,540;  277,665;  278,255
261,103;  313,021;  301,785;  302,875
261,193;  309,720;  302,086;  303,915
261,284;  277,260;  271,806;  273,005
261,374;  307,681;  296,385;  303,855
261,465;  297,241;  287,755;  289,435
261,555;  287,100;  282,255;  280,715
261,646;  297,760;  292,475;  294,375
261,736;  297,021;  287,435;  290,535
261,827;  291,380;  283,716;  284,935
261,917;  325,880;  311,736;  311,595
262,007;  296,280;  283,986;  288,075
262,098;  293,940;  289,445;  287,725
262,188;  339,260;  326,655;  333,475
262,279;  306,100;  300,185;  299,795
262,369;  300,100;  286,285;  289,225
262,459;  295,820;  288,246;  290,365
262,550;  308,961;  303,266;  301,565
262,640;  277,540;  273,005;  276,555
262,731;  302,201;  300,935;  299,335
262,821;  318,401;  310,535;  312,255
262,911;  308,521;  297,875;  298,285
263,002;  298,341;  289,625;  290,825
263,092;  309,741;  303,956;  306,295
263,182;  288,901;  284,806;  285,755
263,273;  295,961;  285,426;  289,395
263,363;  306,260;  300,746;  299,385
263,453;  270,401;  267,375;  268,605
263,543;  299,921;  289,815;  289,615
263,634;  271,000;  266,516;  266,365
263,724;  302,380;  292,586;  293,065
263,814;  319,401;  308,706;  308,885
263,904;  293,720;  281,966;  285,905
263,995;  326,220;  322,276;  322,325
264,085;  302,880;  295,855;  294,575
264,175;  303,861;  296,706;  296,385
264,265;  327,421;  321,105;  321,865
264,356;  278,841;  270,466;  274,385
264,446;  313,521;  308,996;  307,575
264,536;  300,901;  294,026;  297,515
264,626;  322,521;  318,486;  320,175
264,716;  307,820;  298,435;  303,275
264,806;  316,521;  308,776;  310,415
264,897;  268,220;  258,135;  258,615
264,987;  311,461;  303,535;  304,475
265,077;  314,741;  287,046;  292,545
265,167;  372,301;  310,216;  311,575
265,257;  337,421;  290,445;  290,535
265,347;  329,720;  294,336;  295,795
265,437;  328,380;  296,176;  300,635
265,527;  319,641;  293,155;  294,765
265,617;  288,621;  279,875;  285,145
265,708;  320,940;  314,216;  314,825
265,798;  312,961;  305,415;  307,055
265,888;  312,681;  300,716;  305,545
265,978;  300,121;  294,496;  295,825
266,068;  317,241;  310,155;  315,855
266,158;  302,461;  294,005;  297,205
266,248;  279,641;  274,016;  276,865
266,338;  313,401;  313,035;  314,815
266,428;  309,581;  300,635;  302,655
266,518;  317,720;  311,405;  315,615
266,608;  302,401;  299,725;  294,215
266,698;  280,181;  273,586;  276,245
266,788;  283,500;  274,456;  277,745
266,878;  336,660;  325,776;  330,865
266,968;  317,201;  306,725;  309,425
267,058;  304,581;  297,375;  302,895
267,147;  307,600;  301,845;  302,905
267,237;  300,040;  291,815;  295,765
267,327;  295,021;  286,755;  287,895
267,417;  307,560;  301,225;  303,385
267,507;  301,861;  292,176;  294,215
267,597;  290,260;  282,026;  283,655
267,687;  292,201;  285,165;  287,755
267,777;  290,440;  283,986;  284,615
267,867;  319,060;  312,125;  312,585
267,956;  308,581;  302,466;  304,005
268,046;  316,560;  305,466;  310,865
268,136;  305,660;  296,875;  298,905
268,226;  283,760;  274,885;  274,965
268,316;  288,361;  280,766;  280,845
268,406;  299,241;  289,516;  287,595
268,495;  293,401;  284,415;  287,935
268,585;  316,401;  306,716;  309,605
268,675;  285,440;  284,336;  285,535
268,765;  302,421;  296,355;  300,115
268,854;  292,660;  285,935;  286,715
268,944;  298,581;  291,646;  293,805
269,034;  292,480;  283,986;  289,715
269,124;  298,901;  287,216;  290,705
269,213;  294,401;  286,336;  285,525
269,303;  296,641;  290,466;  288,585
269,393;  306,641;  299,845;  298,345
269,483;  306,301;  300,966;  302,735
269,572;  291,841;  282,875;  284,665
269,662;  288,201;  276,105;  283,315
269,752;  321,100;  312,736;  315,705
269,841;  276,361;  266,046;  269,455
269,931;  290,421;  281,586;  283,075
270,021;  307,641;  300,766;  304,675
270,110;  290,280;  285,695;  288,925
270,200;  303,260;  291,665;  299,445
270,289;  288,000;  280,785;  281,105
270,379;  305,621;  301,466;  302,775
270,469;  297,081;  290,556;  289,955
270,558;  306,521;  303,655;  302,185
270,648;  286,000;  282,785;  284,885
270,737;  295,021;  288,526;  291,525
270,827;  318,181;  310,185;  313,455
270,916;  296,181;  286,935;  289,915
271,006;  297,861;  293,475;  292,885
271,096;  320,921;  317,005;  317,215
271,185;  292,861;  289,896;  289,145
271,275;  308,681;  300,706;  303,575
271,364;  288,341;  281,535;  285,725
271,454;  323,940;  308,255;  315,275
271,543;  302,121;  296,935;  297,745
271,633;  295,681;  293,926;  292,835
271,722;  302,201;  292,255;  296,455
271,812;  288,521;  286,296;  289,275
271,901;  301,380;  292,326;  293,765
271,990;  298,181;  291,836;  290,915
272,080;  297,320;  290,635;  294,915
272,169;  305,921;  301,905;  302,555
272,259;  296,241;  293,225;  292,695
272,348;  310,341;  305,796;  308,535
272,438;  294,820;  296,935;  293,635
272,527;  308,040;  303,996;  304,365
272,616;  306,220;  301,866;  305,295
272,706;  328,621;  320,935;  323,195
272,795;  320,701;  314,076;  315,755
272,884;  303,861;  297,076;  299,515
272,974;  329,720;  317,975;  319,965
273,063;  342,621;  338,206;  337,765
273,152;  313,280;  310,306;  307,735
273,242;  330,220;  320,276;  324,915
273,331;  320,461;  319,315;  322,835
273,420;  311,681;  301,105;  310,255
273,510;  312,961;  307,355;  308,155
273,599;  310,181;  303,255;  306,195
273,688;  312,380;  302,605;  301,885
273,778;  290,521;  285,065;  287,095
273,867;  324,940;  320,266;  317,015
273,956;  309,540;  303,725;  303,805
274,045;  280,280;  273,966;  275,965
274,135;  309,260;  303,905;  305,375
274,224;  299,461;  286,516;  290,045
274,313;  310,540;  305,586;  307,745
274,402;  285,741;  284,796;  287,085
274,491;  317,760;  310,975;  312,995
274,581;  308,560;  301,415;  302,765
274,670;  302,361;  293,146;  294,385
274,759;  305,421;  299,405;  300,435
274,848;  287,801;  276,655;  279,925
274,937;  293,100;  289,945;  287,635
275,026;  295,401;  285,616;  287,835
275,116;  322,461;  316,415;  315,805
275,205;  298,780;  266,926;  271,135
275,294;  335,600;  302,315;  304,335
275,383;  303,841;  299,905;  297,985
275,472;  297,500;  290,005;  290,825
275,561;  297,440;  290,505;  290,285
275,650;  313,581;  306,046;  306,435
275,739;  299,280;  294,776;  297,985
275,828;  279,801;  274,635;  277,965
275,917;  318,600;  312,065;  306,825
276,006;  305,440;  295,426;  296,835
276,095;  300,880;  294,526;  298,665
276,184;  313,720;  309,556;  307,945
276,273;  307,461;  303,105;  304,505
276,362;  280,440;  275,896;  278,535
276,451;  294,380;  291,306;  291,915
276,540;  296,060;  295,896;  296,105
276,629;  294,540;  292,576;  293,225
276,718;  277,780;  270,695;  274,545
276,807;  272,241;  271,625;  274,825
276,896;  284,861;  280,526;  284,495
276,985;  286,980;  283,616;  289,365
277,074;  303,701;  299,105;  300,525
277,163;  301,160;  294,746;  299,085
277,252;  282,641;  279,646;  276,465
277,341;  287,701;  281,236;  289,265
277,430;  282,880;  276,845;  279,355
277,519;  306,760;  298,956;  301,695
277,608;  268,181;  266,546;  267,775
277,696;  273,861;  266,975;  269,445
277,785;  290,000;  284,095;  283,485
277,874;  302,621;  299,605;  296,795
277,963;  291,241;  288,155;  289,995
278,052;  268,760;  264,776;  265,525
278,141;  295,320;  288,415;  290,745
278,229;  298,701;  290,146;  291,935
278,318;  277,121;  268,236;  271,495
278,407;  296,701;  285,576;  285,935
278,496;  293,440;  289,915;  291,965
278,585;  307,260;  300,486;  302,275
278,673;  268,841;  263,836;  266,715
278,762;  274,141;  266,176;  270,485
278,851;  296,600;  285,496;  286,035
278,940;  309,000;  303,685;  303,305
279,028;  297,341;  296,306;  299,585
279,117;  293,540;  282,725;  286,655
279,206;  286,701;  279,475;  284,105
279,294;  290,201;  284,396;  286,665
279,383;  291,521;  286,646;  287,335
279,472;  302,081;  298,095;  298,295
279,561;  284,440;  283,355;  284,975
279,649;  315,060;  308,535;  308,935
279,738;  261,480;  255,566;  255,215
279,827;  312,521;  306,785;  308,805
279,915;  281,820;  275,285;  276,335
280,004;  292,521;  286,565;  288,905
280,092;  315,741;  305,236;  306,635
280,181;  289,780;  280,516;  282,605
280,270;  295,320;  277,866;  281,595
280,358;  306,901;  291,366;  288,915
280,447;  273,621;  261,415;  264,455
280,535;  281,581;  276,016;  275,945
280,624;  283,181;  274,185;  276,805
280,713;  286,780;  277,146;  283,385
280,801;  300,100;  293,116;  293,805
280,890;  295,560;  289,716;  295,475
280,978;  286,641;  280,755;  281,945
281,067;  256,540;  250,676;  255,865
281,155;  286,461;  274,855;  275,705
281,244;  323,060;  313,595;  316,445
281,332;  299,940;  290,845;  293,825
281,421;  280,021;  271,605;  273,675
281,509;  290,121;  284,646;  282,415
281,598;  270,301;  262,435;  263,765
281,686;  296,000;  290,776;  288,945
281,775;  295,081;  285,516;  290,815
281,863;  282,841;  278,016;  279,225
281,951;  279,921;  267,665;  270,735
282,040;  314,741;  300,315;  301,115
282,128;  302,760;  288,375;  294,235
282,217;  274,280;  265,926;  266,075
282,305;  308,000;  294,796;  294,045
282,393;  295,320;  286,505;  284,595
282,482;  293,380;  279,535;  283,255
282,570;  279,641;  266,945;  270,215
282,658;  291,841;  276,116;  277,715
282,747;  275,600;  265,026;  267,905
282,835;  323,181;  306,076;  309,035
282,923;  272,540;  264,655;  267,805
283,012;  298,681;  291,366;  296,345
283,100;  277,940;  269,185;  274,675
283,188;  263,461;  261,125;  262,525
283,277;  291,000;  284,336;  284,745
283,365;  276,241;  271,676;  278,375
283,453;  277,380;  264,755;  270,455
283,542;  300,081;  290,896;  293,765
283,630;  279,540;  276,195;  278,595
283,718;  279,000;  271,195;  274,365
283,806;  252,661;  241,706;  247,485
283,894;  276,560;  274,336;  274,395
283,983;  289,820;  282,165;  282,605
284,071;  295,841;  285,285;  291,495
284,159;  312,480;  309,125;  314,805
284,247;  297,220;  287,466;  288,555
284,335;  288,760;  286,935;  287,485
284,424;  290,980;  283,915;  288,465
284,512;  289,560;  283,475;  286,175
284,600;  288,160;  279,415;  280,145
284,688;  316,741;  312,815;  317,115
284,776;  291,260;  286,815;  287,745
284,864;  315,820;  302,125;  308,655
284,952;  294,801;  289,625;  289,025
285,041;  301,160;  298,255;  298,145
285,129;  306,880;  299,435;  302,445
285,217;  310,760;  300,056;  303,885
285,305;  319,861;  318,676;  319,885
285,393;  282,560;  275,776;  278,695
285,481;  301,841;  296,665;  298,405
285,569;  289,380;  282,966;  285,145
285,657;  301,701;  295,165;  296,255
285,745;  302,461;  292,655;  293,125
285,833;  299,701;  289,505;  293,165
285,921;  306,741;  298,116;  300,945
286,009;  311,301;  301,105;  303,655
286,097;  299,000;  298,236;  301,315
286,185;  287,000;  284,405;  284,795
286,273;  285,921;  283,415;  284,655
286,361;  315,701;  307,915;  311,825
286,449;  300,540;  296,195;  294,565
286,537;  307,760;  304,105;  302,085
286,625;  295,720;  291,185;  293,415
286,713;  285,141;  275,806;  280,315
286,801;  313,181;  312,076;  307,795
286,889;  320,581;  319,435;  320,055
286,976;  293,341;  287,905;  291,205
287,064;  310,341;  307,635;  311,875
287,152;  308,801;  303,576;  305,585
287,240;  311,780;  309,185;  308,845
287,328;  289,641;  287,685;  281,755
287,416;  296,681;  290,975;  292,385
287,504;  306,320;  294,435;  298,285
287,591;  305,581;  298,176;  300,225
287,679;  294,701;  286,095;  286,145
287,767;  303,841;  298,206;  296,985
287,855;  314,401;  303,736;  307,515
287,943;  313,600;  306,716;  309,435
288,030;  297,660;  293,456;  291,795
288,118;  321,780;  318,255;  318,995
288,206;  281,540;  274,956;  275,705
288,294;  309,540;  301,986;  304,135
288,382;  305,060;  300,776;  303,615
288,469;  313,720;  304,396;  308,895
288,557;  298,621;  294,095;  292,615
288,645;  329,641;  323,396;  323,315
288,732;  284,021;  278,915;  279,235
288,820;  306,301;  304,576;  306,785
288,908;  308,720;  304,826;  303,915
288,995;  318,320;  310,945;  310,305
289,083;  296,581;  293,026;  292,935
289,171;  333,241;  320,165;  325,565
289,258;  374,060;  322,176;  324,305
289,346;  438,040;  326,266;  329,365
289,434;  321,181;  303,435;  306,185
289,521;  289,621;  280,415;  286,295
289,609;  325,060;  320,426;  325,405
289,697;  319,961;  312,336;  315,125
289,784;  301,220;  295,445;  295,775
289,872;  317,820;  306,905;  313,015
289,959;  287,980;  282,375;  283,415
290,047;  302,341;  296,546;  300,865
290,134;  277,341;  272,665;  273,815
290,222;  315,560;  308,915;  308,665
290,310;  311,841;  304,905;  307,145
290,397;  338,421;  328,505;  332,835
290,485;  297,160;  290,815;  293,005
290,572;  317,701;  313,225;  314,645
290,660;  310,780;  306,385;  306,205
290,747;  294,801;  295,165;  292,775
290,835;  305,560;  299,016;  302,505
290,922;  310,021;  304,016;  305,515
291,009;  302,641;  297,676;  301,715
291,097;  301,121;  297,926;  300,755
291,184;  332,341;  332,716;  338,585
291,272;  290,421;  282,966;  288,375
291,359;  286,380;  283,915;  289,305
291,447;  304,760;  303,086;  304,735
291,534;  330,260;  327,326;  323,005
291,621;  308,861;  302,845;  301,105
291,709;  288,040;  285,716;  283,705
291,796;  317,000;  320,146;  316,555
291,884;  295,141;  291,466;  296,115
291,971;  325,521;  315,065;  320,295
292,058;  294,440;  288,725;  288,985
292,146;  298,861;  293,746;  297,955
292,233;  286,901;  285,426;  284,765
292,320;  292,361;  294,306;  297,685
292,408;  320,681;  309,086;  308,565
292,495;  304,861;  290,565;  293,085
292,582;  291,280;  286,845;  287,375
292,669;  287,440;  281,415;  286,055
292,757;  287,461;  282,176;  283,865
292,844;  313,961;  312,935;  313,175
292,931;  282,280;  275,176;  277,485
293,018;  296,801;  291,516;  289,915
293,106;  307,961;  299,966;  303,035
293,193;  276,301;  272,415;  274,385
293,280;  306,540;  297,255;  303,635
293,367;  300,701;  296,956;  295,215
293,455;  296,720;  293,185;  294,155
293,542;  283,440;  275,695;  281,445
293,629;  284,641;  279,035;  281,855
293,716;  312,380;  305,646;  311,195
293,803;  293,801;  287,105;  287,695
293,890;  314,961;  310,336;  312,555
293,978;  292,280;  284,105;  290,755
294,065;  293,480;  286,725;  284,345
294,152;  309,341;  302,385;  304,355
294,239;  277,521;  275,646;  274,625
294,326;  292,021;  286,746;  290,635
294,413;  281,361;  278,046;  278,465
294,500;  298,280;  292,586;  295,255
294,587;  293,521;  283,915;  287,195
294,674;  314,801;  305,875;  306,925
294,761;  292,081;  288,896;  287,945
294,848;  291,361;  286,866;  294,115
294,935;  294,260;  290,746;  290,555
295,022;  277,081;  272,396;  274,105
295,109;  262,540;  258,466;  262,665
295,196;  296,100;  291,405;  295,265
295,283;  282,940;  281,176;  278,745
295,370;  316,260;  308,975;  312,155
295,457;  298,980;  289,986;  290,435
295,544;  292,021;  285,105;  287,985
295,631;  297,861;  290,165;  295,805
295,718;  275,961;  272,676;  274,015
295,805;  301,600;  296,225;  296,685
295,892;  304,581;  300,005;  304,445
295,979;  302,401;  291,266;  292,755
296,066;  304,421;  293,996;  296,145
296,153;  306,560;  296,026;  296,355
296,240;  307,901;  299,206;  300,535
296,327;  301,220;  285,206;  285,615
296,413;  318,440;  301,285;  305,075
296,500;  338,421;  302,755;  305,145
296,587;  519,440;  288,616;  286,065
296,674; 1611,041;  294,396;  297,335
296,761;  827,680;  300,095;  298,245
296,848;  308,461;  281,956;  285,815
296,934;  303,201;  290,966;  295,265
297,021;  302,380;  292,565;  292,975
297,108;  284,961;  276,366;  280,895
297,195;  297,100;  291,466;  294,705
297,282;  293,000;  286,535;  286,195
297,368;  318,000;  310,026;  305,975
297,455;  284,081;  279,155;  283,145
297,542;  315,000;  311,375;  313,235
297,629;  304,301;  299,016;  300,205
297,715;  312,780;  308,285;  310,385
297,802;  303,921;  300,466;  303,285
297,889;  318,280;  311,716;  313,025
297,975;  334,220;  322,836;  323,685
298,062;  317,021;  310,505;  312,995
298,149;  279,421;  273,505;  274,905
298,235;  297,961;  291,135;  294,075
298,322;  296,961;  294,806;  292,785
298,409;  310,160;  311,195;  312,715
298,495;  288,701;  285,435;  283,435
298,582;  311,841;  307,516;  308,065
298,669;  294,901;  290,526;  294,245
298,755;  301,940;  299,065;  302,235
298,842;  310,961;  304,755;  309,095
298,928;  304,660;  303,855;  304,595
299,015;  297,341;  294,896;  296,705
299,102;  323,220;  318,986;  320,565
299,188;  320,021;  315,956;  316,045
299,275;  311,720;  309,926;  309,365
299,361;  283,741;  278,875;  281,665
299,448;  315,280;  312,466;  310,885
299,534;  313,901;  312,355;  312,735
299,621;  308,780;  304,655;  303,865
299,707;  303,961;  299,016;  304,675
299,794;  323,220;  319,885;  319,685
299,880;  323,641;  317,076;  318,325
299,967;  304,021;  296,345;  296,295
300,053;  303,861;  295,935;  299,065
300,140;  334,980;  323,086;  328,875
300,226;  315,741;  313,885;  313,595
300,312;  310,380;  307,276;  306,695
300,399;  312,980;  305,505;  308,465
300,485;  305,560;  297,776;  301,725
300,572;  287,901;  281,655;  281,655
300,658;  299,081;  297,216;  294,585
300,744;  316,160;  310,706;  311,315
300,831;  319,880;  313,595;  318,275
300,917;  326,720;  321,676;  320,915
301,004;  311,701;  311,556;  311,015
301,090;  281,081;  277,785;  280,095
301,176;  289,980;  284,255;  288,205
301,263;  319,480;  313,676;  314,925
301,349;  294,380;  289,475;  293,305
301,435;  287,380;  284,276;  285,095
301,521;  321,081;  314,625;  313,245
301,608;  318,440;  314,695;  315,515
301,694;  306,160;  297,896;  300,535
301,780;  304,301;  303,046;  298,285
301,867;  289,621;  280,836;  285,265
301,953;  312,201;  296,595;  301,165
302,039;  385,980;  295,116;  297,515
302,125;  537,841;  298,445;  304,125
302,211;  368,961;  332,926;  334,115
302,298;  349,081;  301,926;  305,295
302,384;  298,660;  281,116;  287,095
302,470;  295,361;  289,505;  291,305
302,556;  309,060;  301,935;  305,645
302,642;  298,681;  293,456;  295,155
302,729;  304,500;  289,306;  293,525
302,815;  315,241;  317,966;  319,775
302,901;  300,021;  296,475;  298,745
302,987;  314,560;  307,716;  308,245
303,073;  306,260;  304,185;  302,795
303,159;  299,021;  296,945;  298,695
303,245;  291,901;  284,336;  290,495
303,331;  291,000;  283,486;  286,455
303,417;  299,560;  294,556;  296,145
303,503;  313,901;  310,046;  312,155
303,590;  297,940;  289,146;  291,705
303,676;  305,260;  299,505;  300,385
303,762;  288,701;  287,185;  287,835
303,848;  317,681;  311,026;  312,055
303,934;  313,280;  304,915;  307,775
304,020;  304,220;  301,796;  304,745
304,106;  315,081;  309,975;  314,015
304,192;  300,621;  291,796;  296,765
304,278;  306,301;  302,896;  304,455
304,364;  330,201;  323,026;  324,755
304,450;  309,701;  301,496;  304,095
304,535;  305,421;  304,005;  304,245
304,621;  303,660;  301,565;  302,205
304,707;  307,380;  306,296;  307,635
304,793;  320,341;  318,625;  318,575
304,879;  312,461;  306,776;  310,585
304,965;  318,940;  312,845;  313,365
305,051;  317,961;  308,616;  311,355
305,137;  320,741;  318,146;  324,235
305,223;  294,581;  291,445;  293,725
305,309;  322,100;  313,496;  317,755
305,394;  317,801;  311,996;  311,465
305,480;  306,260;  299,426;  304,775
305,566;  313,780;  309,355;  310,525
305,652;  318,760;  313,605;  317,885
305,738;  354,861;  349,206;  353,435
305,824;  316,540;  316,016;  315,095
305,909;  330,320;  323,815;  325,155
305,995;  293,201;  289,595;  290,025
306,081;  347,500;  348,345;  350,435
306,167;  312,880;  303,966;  307,875
306,252;  329,720;  324,375;  325,505
306,338;  336,401;  331,366;  335,515
306,424;  307,361;  306,595;  307,415
306,510;  320,901;  316,105;  319,795
306,595;  326,681;  323,685;  322,125
306,681;  323,841;  316,926;  318,895
306,767;  308,841;  305,336;  309,425
306,852;  336,921;  328,255;  331,375
306,938;  328,861;  325,796;  325,905
307,024;  309,280;  302,875;  304,755
307,109;  339,040;  336,065;  338,965
307,195;  321,260;  316,326;  318,385
307,281;  322,021;  318,716;  318,575
307,366;  315,961;  313,345;  310,455
307,452;  320,641;  312,426;  316,335
307,537;  294,880;  296,776;  298,485
307,623;  296,720;  292,105;  296,985
307,709;  314,921;  309,885;  310,795
307,794;  295,560;  288,576;  291,835
307,880;  330,220;  320,236;  319,735
307,965;  313,241;  307,456;  307,525
308,051;  298,760;  297,195;  298,065
308,136;  296,081;  297,165;  296,745
308,222;  307,581;  300,366;  302,045
308,307;  299,841;  295,116;  296,645
308,393;  300,181;  295,535;  300,335
308,478;  324,081;  321,826;  318,975
308,564;  293,081;  295,516;  288,925
308,649;  313,220;  308,496;  308,295
308,735;  303,921;  294,155;  300,535
308,820;  321,861;  320,655;  319,455
308,906;  298,241;  291,625;  300,515
308,991;  339,961;  341,076;  338,375
309,076;  321,600;  319,336;  320,645
309,162;  280,820;  283,945;  283,805
309,247;  313,720;  309,945;  308,415
309,333;  298,741;  291,646;  297,855
309,418;  305,940;  298,665;  301,955
309,503;  304,560;  297,646;  300,235
309,589;  304,880;  303,725;  305,345
309,674;  292,720;  290,945;  289,235
309,759;  306,581;  303,315;  304,195
309,845;  314,160;  311,016;  312,415
309,930;  309,720;  305,966;  307,375
310,015;  284,660;  276,095;  276,835
310,101;  318,421;  315,616;  319,905
310,186;  290,440;  285,426;  288,565
310,271;  305,181;  297,296;  298,295
310,357;  298,141;  297,526;  296,455
310,442;  307,280;  302,445;  303,865
310,527;  303,521;  297,766;  301,125
310,612;  280,641;  278,195;  281,425
310,698;  322,540;  319,725;  321,135
310,783;  305,100;  301,176;  302,685
310,868;  298,280;  294,285;  295,125
310,953;  285,301;  284,165;  285,195
311,038;  313,820;  311,146;  310,075
311,124;  298,121;  294,635;  290,925
311,209;  283,660;  276,736;  277,355
311,294;  315,081;  310,206;  312,575
311,379;  281,361;  276,785;  277,345
311,464;  301,701;  297,405;  297,635
311,549;  289,940;  282,385;  284,505
311,634;  294,581;  290,396;  286,805
311,719;  322,280;  316,016;  315,415
311,805;  298,040;  289,266;  291,605
311,890;  303,880;  295,165;  295,925
311,975;  296,181;  281,526;  286,055
312,060;  313,081;  298,146;  302,435
312,145;  292,760;  277,586;  276,025
312,230;  320,040;  290,815;  296,495
312,315;  336,440;  294,065;  296,045
312,400;  401,780;  296,396;  299,795
312,485; 1540,901;  290,535;  292,475
312,570; 1267,661;  277,125;  279,615
312,655;  349,581;  308,176;  313,325
312,740;  328,081;  301,616;  302,005
312,825;  340,440;  304,105;  307,725
312,910;  359,280;  307,736;  309,235
312,995;  446,880;  296,236;  298,245
313,080; 1925,041;  285,655;  286,805
313,165; 2187,101;  303,565;  305,305
313,250;  371,921;  287,276;  287,825
313,335;  326,560;  307,435;  312,125
313,419;  279,540;  267,466;  268,635
313,504;  331,421;  313,355;  315,225
313,589;  307,021;  295,216;  297,545
313,674;  316,461;  307,206;  310,085
313,759;  292,260;  281,556;  282,625
313,844;  308,980;  292,776;  291,005
313,929;  304,961;  289,945;  291,695
314,014;  322,201;  313,306;  315,005
314,098;  315,380;  299,035;  300,425
314,183;  269,320;  263,505;  263,795
314,268;  305,380;  296,496;  298,955
314,353;  313,820;  302,026;  306,185
314,438;  313,301;  306,905;  311,515
314,522;  313,560;  309,486;  308,535
314,607;  311,220;  307,565;  307,855
314,692;  304,741;  301,885;  303,855
314,777;  293,021;  291,766;  292,395
314,861;  282,201;  277,285;  276,385
314,946;  319,521;  315,116;  317,565
315,031;  299,500;  291,875;  294,115
315,115;  309,801;  306,206;  308,065
315,200;  320,121;  312,146;  313,065
315,285;  295,961;  289,486;  289,595
315,369;  288,820;  287,945;  288,545
315,454;  315,380;  311,905;  311,025
315,539;  314,320;  310,246;  307,795
315,623;  312,401;  309,426;  313,225
315,708;  335,961;  335,605;  336,825
315,793;  303,141;  297,986;  298,155
315,877;  307,940;  302,975;  305,445
315,962;  291,401;  289,105;  291,925
316,046;  320,040;  317,065;  319,225
316,131;  339,461;  334,516;  337,215
316,216;  314,841;  310,315;  310,785
316,300;  305,500;  303,345;  302,165
316,385;  333,301;  325,315;  324,305
316,469;  333,320;  330,625;  331,955
316,554;  300,921;  296,005;  298,425
316,638;  302,301;  296,725;  301,565
316,723;  298,581;  292,546;  293,795
316,807;  302,861;  299,595;  299,275
316,892;  289,880;  288,975;  289,925
316,976;  318,401;  314,405;  316,505
317,061;  309,521;  306,035;  305,965
317,145;  327,980;  327,655;  325,965
317,230;  323,021;  321,505;  319,905
317,314;  282,581;  275,565;  275,085
317,398;  318,320;  310,706;  312,245
317,483;  286,260;  290,026;  291,085
317,567;  319,461;  315,326;  317,865
317,652;  288,861;  283,526;  286,625
317,736;  309,780;  308,776;  309,285
317,820;  338,961;  329,005;  334,665
317,905;  310,461;  306,706;  307,035
317,989;  297,641;  298,285;  300,875
318,073;  298,480;  298,076;  297,705
318,158;  289,060;  284,966;  285,565
318,242;  300,401;  296,845;  299,095
318,326;  288,241;  283,155;  284,015
318,411;  298,861;  295,125;  296,565
318,495;  291,801;  285,776;  287,165
318,579;  290,220;  288,746;  289,305
318,664;  283,780;  280,315;  284,255
318,748;  308,940;  305,996;  310,145
318,832;  292,380;  290,806;  289,475
318,916;  274,141;  274,785;  277,335
319,001;  306,181;  299,945;  301,485
319,085;  301,060;  292,885;  290,905
319,169;  294,540;  293,396;  294,485
319,253;  288,581;  287,216;  285,525
319,337;  306,720;  306,246;  304,885
319,422;  316,081;  316,125;  313,225
319,506;  287,861;  283,326;  285,905
319,590;  310,841;  303,915;  305,525
319,674;  300,260;  291,926;  295,405
319,758;  307,921;  295,165;  300,215
319,842;  312,341;  306,135;  309,155
319,926;  298,040;  294,815;  295,205
320,010;  273,440;  267,046;  269,575
320,095;  289,480;  280,926;  284,685
320,179;  283,600;  279,125;  281,175
320,263;  288,000;  277,385;  285,805
320,347;  279,361;  271,296;  279,075
320,431;  278,100;  273,435;  274,355
320,515;  300,641;  296,375;  299,935
320,599;  277,181;  269,866;  273,825
320,683;  311,040;  305,706;  305,495
320,767;  267,280;  266,236;  266,205
320,851;  284,160;  281,855;  287,785
320,935;  317,921;  312,565;  318,275
321,019;  295,801;  292,975;  290,075
321,103;  284,040;  278,135;  280,585
321,187;  277,060;  273,165;  273,265
321,271;  296,421;  294,616;  296,825
321,355;  289,600;  281,595;  283,805
321,439;  302,801;  301,216;  301,725
321,523;  284,901;  282,266;  284,705
321,606;  290,741;  287,426;  288,215
321,690;  291,660;  287,026;  288,215
321,774;  298,820;  288,336;  292,205
321,858;  291,841;  292,966;  291,945
321,942;  298,621;  294,276;  298,975
322,026;  287,760;  283,315;  282,695
322,110;  299,921;  293,146;  295,755
322,194;  297,841;  295,355;  301,055
322,277;  287,901;  286,135;  287,285
322,361;  279,681;  278,595;  281,215
322,445;  294,260;  289,315;  291,095
322,529;  301,980;  297,716;  299,645
322,613;  299,201;  297,206;  297,795
322,696;  273,500;  267,695;  272,865
322,780;  284,160;  283,026;  283,485
322,864;  278,641;  272,625;  279,835
322,948;  296,440;  292,326;  295,965
323,031;  285,540;  281,565;  282,215
323,115;  290,260;  284,586;  285,215
323,199;  297,560;  296,565;  299,105
323,282;  314,301;  307,496;  310,065
323,366;  294,040;  287,296;  293,625
323,450;  281,181;  273,496;  275,835
323,533;  318,380;  314,576;  317,415
323,617;  276,280;  268,695;  271,585
323,701;  288,500;  281,105;  283,575
323,784;  296,121;  292,576;  294,205
323,868;  301,540;  297,866;  299,875
323,952;  297,320;  290,966;  294,175
324,035;  308,621;  305,926;  310,825
324,119;  304,581;  295,466;  298,455
324,202;  293,560;  286,836;  292,745
324,286;  290,060;  284,986;  286,605
324,370;  296,160;  293,105;  296,765
324,453;  305,081;  299,616;  301,745
324,537;  297,160;  294,426;  298,035
324,620;  293,780;  286,635;  291,765
324,704;  276,040;  270,445;  276,525
324,787;  298,141;  294,875;  296,265
324,871;  314,701;  310,986;  315,255
324,954;  314,060;  312,246;  315,985
325,038;  308,160;  306,466;  306,985
325,121;  314,000;  308,695;  312,075
325,205;  293,861;  290,396;  293,295
325,288;  282,780;  279,556;  285,675
325,371;  305,121;  298,945;  302,395
325,455;  316,841;  314,026;  312,045
325,538;  290,760;  281,516;  287,185
325,622;  325,701;  320,806;  321,295
325,705;  299,100;  297,716;  298,675
325,788;  319,100;  313,625;  316,645
325,872;  302,540;  300,796;  300,745
325,955;  323,961;  319,845;  325,065
326,039;  310,320;  309,576;  312,795
326,122;  317,320;  310,746;  311,665
326,205;  318,181;  311,806;  310,235
326,289;  322,521;  313,986;  319,245
326,372;  302,380;  294,746;  299,195
326,455;  330,421;  323,095;  324,405
326,538;  317,480;  312,336;  316,545
326,622;  324,861;  318,396;  320,075
326,705;  291,000;  287,315;  287,875
326,788;  322,021;  321,266;  322,405
326,871;  319,220;  315,576;  317,965
326,955;  318,741;  313,836;  315,225
327,038;  312,040;  310,116;  310,855
327,121;  306,021;  301,516;  307,855
327,204;  322,280;  313,216;  314,045
327,288;  330,341;  328,956;  332,375
327,371;  294,060;  288,185;  296,955
327,454;  314,380;  313,065;  313,845
327,537;  297,660;  299,815;  302,435
327,620;  332,220;  322,935;  330,145
327,703;  314,201;  309,076;  310,615
327,786;  313,940;  311,076;  312,115
327,870;  326,341;  323,155;  328,715
327,953;  306,141;  301,155;  305,785
328,036;  299,341;  293,105;  299,035
328,119;  325,000;  317,576;  321,135
328,202;  308,380;  301,885;  305,875
328,285;  332,521;  326,776;  329,015
328,368;  322,081;  320,935;  322,625
328,451;  326,280;  320,635;  322,565
328,534;  306,141;  301,266;  307,075
328,617;  309,820;  305,676;  311,785
328,700;  331,961;  326,505;  326,695
328,783;  325,741;  320,785;  322,875
328,866;  319,100;  314,095;  319,935
328,949;  325,880;  319,966;  326,555
329,032;  300,260;  297,826;  300,605
329,115;  295,540;  290,905;  295,945
329,198;  290,000;  282,956;  283,785
329,281;  303,500;  299,336;  298,465
329,364;  315,600;  316,246;  319,245
329,447;  312,720;  307,176;  309,255
329,530;  332,820;  328,155;  328,175
329,613;  303,801;  300,565;  306,725
329,696;  335,081;  326,806;  330,715
329,778;  317,980;  311,306;  316,915
329,861;  302,720;  295,236;  299,565
329,944;  332,181;  321,685;  327,225
330,027;  312,480;  311,576;  315,115
330,110;  314,181;  307,595;  311,705
330,193;  299,600;  295,306;  299,955
330,275;  323,861;  312,296;  315,835
330,358;  298,380;  291,776;  296,185
330,441;  327,301;  323,586;  325,365
330,524;  311,921;  305,216;  311,095
330,607;  306,801;  304,345;  306,905
330,689;  315,081;  313,105;  314,535
330,772;  313,000;  311,105;  312,425
330,855;  334,160;  325,065;  327,855
330,938;  318,000;  312,315;  321,275
331,020;  322,521;  317,176;  320,535
331,103;  299,201;  293,035;  294,505
331,186;  312,621;  305,146;  307,085
331,268;  297,841;  293,565;  298,695
331,351;  315,560;  313,026;  316,455
331,434;  315,641;  308,385;  312,645
331,516;  316,961;  319,076;  321,185
331,599;  300,320;  297,095;  301,425
331,682;  317,880;  310,736;  310,985
331,764;  297,181;  293,326;  297,915
331,847;  319,540;  313,716;  315,705
331,929;  295,380;  290,026;  293,225
332,012;  314,540;  309,625;  310,055
332,095;  329,540;  323,306;  326,625
332,177;  326,280;  320,806;  324,285
332,260;  331,901;  327,526;  328,035
332,342;  312,220;  309,246;  314,445
332,425;  319,581;  312,516;  311,505
332,507;  314,780;  308,526;  311,575
332,590;  289,361;  287,595;  291,655
332,672;  297,401;  294,885;  298,455
332,755;  312,521;  306,855;  311,605
332,837;  305,921;  310,716;  312,255
332,920;  311,121;  309,076;  315,155
333,002;  330,220;  325,676;  328,895
333,085;  319,081;  313,375;  315,165
333,167;  301,201;  296,875;  298,575
333,249;  298,220;  294,526;  298,145
333,332;  295,801;  293,296;  297,715
333,414;  306,720;  300,035;  304,875
333,497;  305,720;  300,255;  302,305
333,579;  301,341;  300,996;  306,375
333,661;  325,060;  319,706;  320,745
333,744;  297,940;  293,695;  297,125
333,826;  304,720;  305,766;  306,065
333,908;  322,480;  313,896;  316,665
333,991;  309,701;  291,266;  291,545
334,073;  463,201;  312,706;  318,525
334,155;  364,440;  304,086;  305,525
334,238;  326,901;  318,576;  326,145
334,320;  301,160;  297,046;  300,585
334,402;  307,181;  302,996;  304,895
334,485;  305,461;  303,655;  304,015
334,567;  302,341;  299,776;  301,975
334,649;  281,880;  278,426;  282,925
334,731;  321,000;  313,456;  317,305
334,813;  316,301;  315,605;  320,355
334,896;  295,841;  290,185;  294,595
334,978;  307,081;  309,165;  302,585
335,060;  305,600;  304,255;  304,235
335,142;  304,160;  301,665;  302,275
335,224;  309,801;  309,766;  311,745
335,307;  302,380;  297,456;  298,965
335,389;  315,301;  310,385;  317,305
335,471;  306,701;  299,896;  306,115
335,553;  322,421;  319,866;  318,905
335,635;  316,780;  312,836;  315,315
335,717;  302,060;  298,195;  300,145
335,799;  327,361;  322,695;  323,585
335,881;  285,681;  278,385;  282,845
335,963;  294,841;  291,796;  293,005
336,045;  299,480;  295,516;  301,085
336,128;  276,921;  270,945;  275,225
336,210;  290,820;  288,996;  292,295
336,292;  303,521;  297,845;  300,615
336,374;  312,060;  300,956;  306,155
336,456;  286,141;  285,616;  288,495
336,538;  305,141;  303,165;  304,435
336,620;  310,480;  310,576;  312,205
336,702;  295,160;  294,766;  294,235
336,783;  304,521;  302,556;  304,225
336,865;  309,060;  304,176;  305,725
336,947;  311,641;  308,486;  311,205
337,029;  282,880;  281,826;  282,945
337,111;  319,181;  316,266;  316,735
337,193;  284,421;  280,986;  284,795
337,275;  316,500;  310,815;  314,535
337,357;  321,801;  318,815;  324,805
337,439;  306,641;  305,255;  310,655
337,521;  278,641;  277,225;  280,915
337,602;  303,021;  298,435;  301,085
337,684;  315,021;  315,635;  317,455
337,766;  316,021;  312,266;  312,305
337,848;  304,040;  295,086;  301,025
337,930;  300,401;  303,165;  306,525
338,012;  298,780;  298,586;  299,555
338,093;  316,040;  312,396;  315,895
338,175;  325,100;  318,195;  321,575
338,257;  306,880;  306,945;  309,225
338,339;  299,021;  294,086;  300,165
338,420;  313,780;  310,986;  310,895
338,502;  299,100;  298,836;  304,265
338,584;  291,421;  286,736;  289,235
338,666;  309,621;  303,426;  302,365
338,747;  336,880;  330,806;  334,875
338,829;  310,921;  309,176;  309,265
338,911;  297,841;  296,236;  298,915
338,992;  295,940;  295,746;  294,435
339,074;  310,100;  306,155;  307,855
339,156;  301,780;  298,176;  303,395
339,237;  328,260;  325,035;  327,765
339,319;  301,581;  294,935;  300,045
339,400;  310,421;  309,065;  311,225
339,482;  284,660;  278,165;  280,605
339,564;  316,901;  317,026;  316,575
339,645;  309,260;  304,595;  308,105
339,727;  295,741;  290,216;  294,375
339,808;  322,641;  317,685;  322,555
339,890;  305,040;  299,956;  302,415
339,971;  317,901;  307,016;  315,055
340,053;  338,100;  336,746;  335,255
340,134;  297,100;  296,535;  298,415
340,216;  322,681;  315,556;  319,645
340,297;  300,301;  298,396;  301,525
340,379;  320,560;  314,736;  316,975
340,460;  309,081;  306,685;  306,615
340,542;  300,380;  294,535;  297,775
340,623;  312,021;  307,926;  312,435
340,705;  300,060;  297,516;  295,795
340,786;  292,181;  289,685;  291,925
340,868;  308,980;  308,826;  304,055
340,949;  289,060;  285,605;  286,145
341,030;  327,121;  321,435;  328,715
341,112;  286,201;  280,565;  284,075
341,193;  278,600;  270,135;  273,595
341,274;  324,040;  322,176;  320,965
341,356;  323,681;  320,716;  321,795
341,437;  304,320;  301,635;  300,825
341,518;  313,000;  307,176;  314,795
341,600;  321,861;  320,866;  322,465
341,681;  331,701;  328,866;  332,375
341,762;  324,641;  325,206;  323,705
341,844;  292,220;  287,146;  292,185
341,925;  309,861;  308,225;  311,205
342,006;  324,820;  320,426;  323,055
342,087;  295,401;  288,095;  292,095
342,169;  311,341;  307,026;  309,845
342,250;  288,480;  286,935;  285,935
342,331;  299,921;  298,706;  299,075
342,412;  309,060;  307,655;  310,045
342,493;  290,581;  289,415;  293,325
342,575;  331,241;  327,095;  327,355
342,656;  324,000;  318,466;  318,265
342,737;  332,961;  329,836;  330,295
342,818;  307,141;  307,996;  309,015
342,899;  314,980;  314,505;  317,165
342,980;  308,901;  306,695;  310,155
343,061;  304,681;  303,065;  304,715
343,143;  320,480;  319,535;  319,565
343,224;  312,560;  306,706;  305,915
343,305;  299,921;  299,625;  303,115
343,386;  301,301;  297,996;  300,475
343,467;  308,141;  303,155;  305,535
343,548;  306,241;  304,176;  305,935
343,629;  320,560;  316,405;  317,625
343,710;  322,600;  322,766;  321,015
343,791;  327,621;  325,065;  327,935
343,872;  302,060;  298,975;  297,795
343,953;  316,241;  314,826;  316,625
344,034;  323,341;  319,475;  324,485
344,115;  307,440;  304,255;  303,425
344,196;  300,921;  298,935;  302,165
344,277;  295,621;  293,306;  294,615
344,358;  306,280;  304,755;  307,345
344,439;  289,741;  293,975;  294,205
344,520;  297,780;  298,546;  300,975
344,601;  315,660;  314,646;  315,525
344,681;  311,260;  302,426;  303,825
344,762;  284,901;  283,466;  287,625
344,843;  280,660;  275,996;  281,125
344,924;  310,780;  303,635;  306,085
345,005;  291,260;  287,176;  288,725
345,086;  312,121;  307,665;  309,725
345,167;  294,260;  293,986;  295,575
345,247;  332,901;  323,896;  328,905
345,328;  317,681;  315,315;  317,705
345,409;  310,581;  307,056;  309,355
345,490;  315,940;  308,415;  314,245
345,571;  309,581;  304,875;  312,045
345,651;  284,100;  279,456;  279,055
345,732;  307,801;  307,285;  312,275
345,813;  312,280;  311,836;  317,355
345,894;  289,181;  285,785;  287,595
345,974;  313,681;  309,556;  311,845
346,055;  298,040;  296,435;  295,735
346,136;  307,241;  304,405;  306,245
346,216;  327,220;  324,945;  328,565
346,297;  306,521;  306,565;  304,225
346,378;  294,100;  291,996;  294,005
346,458;  310,000;  307,375;  313,405
346,539;  306,801;  302,306;  305,975
346,620;  304,521;  305,815;  306,685
346,700;  287,760;  288,755;  289,765
346,781;  287,000;  284,556;  286,765
346,861;  309,421;  304,336;  307,325
346,942;  304,720;  304,336;  302,715
347,023;  311,280;  317,885;  316,005
347,103;  301,401;  297,396;  302,825
347,184;  300,241;  294,475;  296,785
347,264;  292,841;  294,565;  296,805
347,345;  292,060;  290,526;  295,525
347,425;  287,121;  285,125;  290,565
347,506;  286,260;  283,595;  283,195
347,586;  291,181;  289,725;  292,435
347,667;  308,201;  307,616;  304,445
347,747;  311,241;  311,116;  310,775
347,828;  297,961;  296,486;  296,465
347,908;  307,461;  303,306;  307,175
347,988;  303,060;  298,655;  306,125
348,069;  313,361;  311,056;  311,395
348,149;  307,540;  303,956;  309,065
348,230;  312,060;  309,956;  310,945
348,310;  283,201;  284,185;  285,715
348,390;  288,220;  288,526;  288,625
348,471;  298,961;  303,665;  305,125
348,551;  294,681;  290,695;  293,935
348,632;  297,060;  289,505;  294,065
348,712;  290,040;  292,706;  295,115
348,792;  330,521;  329,836;  329,985
348,873;  286,901;  281,905;  283,045
348,953;  289,841;  289,845;  290,395
349,033;  301,760;  297,466;  299,465
349,113;  287,461;  286,076;  286,905
349,194;  301,201;  301,595;  304,825
349,274;  306,621;  304,796;  307,395
349,354;  304,241;  303,046;  308,435
349,434;  306,560;  300,116;  301,925
349,515;  321,660;  316,486;  322,185
349,595;  302,341;  302,206;  302,035
349,675;  308,380;  305,635;  308,015
349,755;  297,701;  296,746;  297,615
349,835;  307,921;  301,195;  307,695
349,916;  299,440;  298,435;  303,915
349,996;  294,760;  291,105;  291,745
350,076;  315,121;  312,375;  317,645
350,156;  284,000;  284,836;  287,665
350,236;  314,500;  314,116;  311,925
350,316;  296,521;  292,975;  295,765
350,396;  310,720;  305,646;  310,065
350,476;  303,121;  301,826;  304,275
350,556;  303,241;  293,966;  299,935
350,637;  323,401;  321,005;  321,825
350,717;  293,560;  288,445;  291,825
350,797;  308,201;  302,616;  305,905
350,877;  294,480;  289,875;  294,705
350,957;  299,361;  297,635;  300,095
351,037;  305,380;  298,556;  303,455
351,117;  295,540;  296,276;  296,555
351,197;  303,401;  303,366;  306,305
351,277;  302,841;  300,556;  301,575
351,357;  314,980;  308,806;  314,445
351,437;  311,980;  306,105;  307,755
351,516;  317,081;  317,986;  318,355
351,596;  298,301;  292,896;  296,025
351,676;  291,181;  290,405;  294,265
351,756;  327,901;  323,426;  326,135
351,836;  315,681;  313,866;  317,935
351,916;  303,921;  297,905;  298,975
351,996;  305,701;  303,996;  305,265
352,076;  306,641;  303,486;  303,085
352,156;  323,720;  319,556;  320,405
352,235;  301,141;  301,255;  300,955
352,315;  314,521;  312,456;  314,415
352,395;  308,121;  308,206;  309,425
352,475;  321,720;  315,405;  320,955
352,555;  335,320;  330,236;  330,635
352,634;  325,241;  321,956;  326,705
352,714;  307,201;  302,595;  304,055
352,794;  359,141;  354,466;  358,075
352,874;  318,901;  314,685;  317,555
352,953;  342,880;  337,676;  339,095
353,033;  326,141;  319,306;  320,925
353,113;  336,480;  332,135;  336,575
353,193;  325,500;  328,046;  329,935
353,272;  332,961;  333,135;  334,365
353,352;  311,361;  307,035;  311,285
353,432;  342,600;  343,005;  347,495
353,511;  331,701;  326,185;  330,665
353,591;  361,581;  361,616;  362,555
353,671;  332,660;  331,926;  333,015
353,750;  332,280;  332,296;  331,275
353,830;  318,641;  313,646;  317,015
353,909;  344,280;  339,836;  343,655
353,989;  314,760;  317,385;  320,255
354,069;  321,361;  319,456;  319,155
354,148;  340,880;  335,035;  339,585
354,228;  314,701;  315,695;  316,905
354,307;  335,600;  329,405;  332,345
354,387;  325,801;  322,095;  322,965
354,466;  319,440;  311,635;  316,045
354,546;  340,421;  335,135;  337,645
354,625;  319,421;  319,815;  320,355
354,705;  324,521;  324,246;  326,865
354,784;  320,401;  316,445;  318,195
354,864;  319,540;  316,635;  317,385
354,943;  336,741;  333,695;  339,105
355,023;  310,701;  310,996;  312,285
355,102;  367,121;  362,866;  363,435
355,181;  316,341;  315,966;  318,045
355,261;  343,500;  338,056;  342,165
355,340;  303,461;  303,845;  307,115
355,420;  346,540;  340,105;  342,305
355,499;  327,820;  322,975;  325,635
355,578;  316,980;  315,276;  316,885
355,658;  332,060;  332,875;  333,745
355,737;  323,600;  317,576;  319,005
355,816;  326,521;  323,276;  324,605
355,896;  324,600;  316,026;  321,355
355,975;  315,461;  307,355;  310,055
356,054;  312,361;  311,935;  312,455
356,133;  292,880;  290,565;  293,305
356,213;  329,100;  324,845;  324,825
356,292;  307,141;  304,016;  309,325
356,371;  315,060;  314,146;  314,035
356,451;  329,121;  324,755;  327,685
356,530;  352,581;  349,496;  350,795
356,609;  315,440;  311,146;  315,535
356,688;  322,581;  316,475;  316,165
356,767;  309,741;  304,695;  309,855
356,846;  326,380;  327,035;  327,235
356,926;  345,480;  340,016;  343,965
357,005;  320,681;  318,345;  318,565
357,084;  303,500;  304,466;  308,385
357,163;  320,681;  317,706;  317,185
357,242;  323,040;  320,146;  319,515
357,321;  315,361;  314,496;  316,575
357,400;  318,961;  321,236;  318,865
357,479;  320,861;  317,725;  320,795
357,559;  325,461;  321,405;  325,705
357,638;  296,100;  300,616;  298,815
357,717;  316,901;  313,746;  311,555
357,796;  331,560;  329,266;  330,875
357,875;  311,760;  314,466;  313,455
357,954;  314,160;  310,155;  313,855
358,033;  317,181;  323,405;  320,935
358,112;  331,581;  329,966;  328,315
358,191;  319,581;  315,276;  318,965
358,270;  297,681;  295,505;  297,695
358,349;  321,301;  321,625;  323,725
358,428;  324,980;  322,445;  326,125
358,507;  327,040;  321,366;  325,105
358,585;  327,021;  320,355;  325,525
358,664;  339,660;  332,266;  334,505
358,743;  329,421;  323,776;  326,515
358,822;  339,040;  334,475;  338,195
358,901;  307,841;  309,176;  309,505
358,980;  313,641;  310,885;  313,735
359,059;  331,461;  328,616;  332,255
359,138;  331,600;  329,415;  328,565
359,216;  328,820;  322,225;  327,485
359,295;  309,341;  309,475;  309,515
359,374;  338,660;  330,026;  333,455
359,453;  322,440;  316,345;  320,885
359,532;  310,021;  304,526;  308,455
359,610;  320,540;  319,556;  323,285
359,689;  335,940;  331,116;  333,025
359,768;  320,100;  313,706;  315,305
359,847;  307,820;  302,065;  305,385
359,925;  307,500;  304,105;  307,215
360,004;  305,260;  299,565;  302,585
360,083;  317,961;  320,165;  321,795
360,161;  305,641;  305,676;  309,885
360,240;  295,841;  288,725;  291,455
360,319;  318,801;  318,276;  317,225
360,397;  330,841;  324,986;  331,265
360,476;  324,060;  318,296;  324,355
360,555;  345,341;  345,565;  346,835
360,633;  304,701;  304,456;  304,945
360,712;  312,341;  309,056;  311,825
360,790;  338,060;  330,065;  331,185
360,869;  316,160;  310,266;  313,085
360,948;  325,621;  322,466;  322,235
361,026;  300,480;  300,065;  301,245
361,105;  313,220;  306,116;  309,875
361,183;  325,421;  324,725;  326,345
361,262;  308,801;  302,375;  307,465
361,340;  310,081;  305,815;  306,875
361,419;  295,461;  289,896;  290,845
361,497;  345,681;  340,926;  346,955
361,576;  320,280;  317,736;  323,245
361,654;  345,841;  342,736;  343,615
361,733;  301,081;  297,366;  297,305
361,811;  335,141;  329,065;  331,875
361,890;  294,220;  292,595;  293,595
361,968;  319,980;  313,706;  316,715
362,046;  338,241;  335,296;  335,795
362,125;  346,681;  337,435;  340,865
362,203;  322,260;  314,635;  316,745
362,282;  333,861;  328,676;  334,675
362,360;  320,980;  318,315;  323,125
362,438;  320,841;  313,565;  317,495
362,517;  358,720;  357,725;  357,035
362,595;  344,220;  340,956;  345,025
362,673;  337,641;  334,576;  338,035
362,752;  328,141;  326,366;  329,445
362,830;  343,220;  343,155;  338,795
362,908;  332,040;  322,885;  326,315
362,986;  338,121;  333,595;  334,645
363,065;  332,461;  326,405;  330,985
363,143;  359,160;  359,875;  363,525
363,221;  324,401;  313,755;  319,675
363,299;  313,760;  315,845;  315,595
363,378;  329,741;  327,546;  328,495
363,456;  308,720;  304,326;  305,295
363,534;  333,060;  323,996;  327,895
363,612;  331,060;  327,546;  330,285
363,690;  340,940;  337,885;  341,915
363,769;  354,301;  349,336;  354,965
363,847;  339,260;  332,326;  333,935
363,925;  307,720;  303,095;  306,775
364,003;  356,060;  350,866;  351,845
364,081;  345,260;  336,345;  339,765
364,159;  340,621;  331,836;  334,695
364,237;  346,940;  341,276;  343,025
364,315;  335,000;  318,866;  320,765
364,393;  362,401;  350,935;  355,465
364,471;  345,660;  328,185;  329,975
364,549;  356,201;  333,026;  334,495
364,627;  357,720;  323,095;  327,065
364,705;  368,220;  311,135;  310,945
364,783;  437,280;  323,496;  332,235
364,861;  984,440;  331,396;  334,915
364,939; 3523,400;  314,086;  319,855
365,017;  800,981;  306,046;  310,735
365,095;  373,780;  322,116;  324,495
365,173;  382,681;  345,556;  349,605
365,251;  388,621;  341,535;  344,665
365,329;  528,081;  346,466;  345,195
365,407; 1154,700;  318,345;  321,385
365,485;  466,720;  344,826;  348,395
365,563;  361,961;  344,306;  346,815
365,641;  341,540;  331,896;  331,005
365,719;  346,841;  337,095;  336,965
365,796;  345,560;  334,926;  336,075
365,874;  361,540;  347,426;  349,165
365,952;  326,841;  309,516;  312,925
366,030;  346,380;  334,866;  333,525
366,108;  366,660;  326,345;  328,575
366,185;  623,521;  338,396;  343,695
366,263;  874,800;  334,646;  340,035
366,341;  384,440;  334,125;  339,925
366,419;  341,921;  331,535;  331,355
366,496;  354,921;  342,655;  345,225
366,574;  334,641;  325,826;  329,315
366,652;  352,741;  345,296;  349,635
366,730;  372,341;  365,475;  368,065
366,807;  337,141;  330,845;  334,945
366,885;  329,841;  321,135;  327,175
366,963;  333,560;  329,016;  331,635
367,040;  356,540;  345,815;  352,465
367,118;  328,660;  321,875;  325,205
367,196;  349,940;  341,896;  344,715
367,273;  340,801;  335,845;  338,245
367,351;  333,841;  328,155;  331,125
367,428;  358,720;  355,016;  356,915
367,506;  336,841;  329,225;  333,905
367,584;  366,521;  360,216;  363,085
367,661;  346,841;  341,785;  346,585
367,739;  330,901;  328,466;  334,835
367,816;  332,160;  320,345;  324,175
367,894;  345,880;  339,146;  345,755
367,971;  340,260;  329,885;  333,335
368,049;  355,861;  349,586;  353,435
368,126;  328,361;  314,625;  317,265
368,204;  354,081;  351,836;  352,775
368,281;  358,921;  353,225;  355,775
368,359;  354,301;  348,806;  354,965
368,436;  352,060;  342,385;  348,785
368,514;  352,701;  349,646;  351,035
368,591;  348,260;  343,486;  348,405
368,668;  349,980;  347,486;  351,455
368,746;  363,480;  358,556;  362,125
368,823;  345,260;  342,405;  345,515
368,901;  346,341;  339,046;  341,025
368,978;  364,861;  354,975;  361,925
369,055;  347,021;  343,826;  347,145
369,133;  371,461;  367,046;  368,725
369,210;  346,361;  339,206;  342,185
369,287;  372,280;  367,986;  371,205
369,365;  374,921;  368,896;  369,715
369,442;  354,260;  346,826;  351,135
369,519;  315,040;  306,396;  310,475
369,596;  373,560;  369,005;  372,695
369,674;  341,160;  336,526;  336,705
369,751;  370,621;  368,005;  369,405
369,828;  355,880;  350,366;  351,255
369,905;  358,141;  354,796;  358,705
369,983;  340,341;  329,826;  336,485
370,060;  337,980;  335,185;  336,165
370,137;  374,341;  371,595;  373,975
370,214;  344,181;  340,246;  340,845
370,291;  354,201;  347,845;  351,965
370,368;  347,241;  345,426;  349,675
370,446;  338,181;  335,716;  337,375
370,523;  337,081;  331,586;  338,615
370,600;  355,320;  350,706;  356,355
370,677;  353,220;  345,826;  349,525
370,754;  344,880;  341,706;  344,655
370,831;  346,521;  344,885;  347,665
370,908;  378,100;  368,556;  369,945
370,985;  329,100;  326,206;  327,885
371,062;  346,581;  346,635;  347,955
371,139;  367,341;  362,125;  364,815
371,216;  360,921;  357,496;  359,475
371,293;  355,921;  350,576;  350,305
371,370;  330,940;  328,806;  332,395
371,447;  356,301;  354,736;  355,835
371,524;  377,040;  374,685;  378,505
371,601;  376,861;  371,556;  374,285
371,678;  379,641;  374,306;  375,345
371,755;  352,021;  348,526;  348,275
371,832;  380,160;  374,526;  377,175
371,909;  344,160;  342,065;  344,605
371,986;  388,060;  376,505;  379,065
372,063;  349,021;  346,195;  348,745
372,140;  359,801;  354,056;  357,495
372,216;  360,600;  360,225;  360,935
372,293;  345,720;  341,945;  344,805
372,370;  371,880;  370,236;  372,635
372,447;  357,440;  361,646;  361,385
372,524;  353,480;  349,725;  352,115
372,601;  357,201;  353,236;  356,005
372,677;  341,741;  339,586;  339,035
372,754;  349,141;  347,516;  350,955
372,831;  359,040;  354,716;  356,955
372,908;  372,380;  368,496;  364,795
372,984;  360,940;  349,246;  356,035
373,061;  343,961;  342,046;  342,845
373,138;  356,021;  349,986;  354,465
373,215;  354,801;  345,155;  346,585
373,291;  353,681;  347,556;  353,415
373,368;  356,421;  353,516;  357,375
373,445;  351,021;  348,285;  348,395
373,521;  357,741;  349,216;  353,935
373,598;  351,320;  341,766;  343,845
373,675;  336,720;  332,646;  334,115
373,751;  353,341;  345,375;  354,195
373,828;  346,880;  341,076;  346,375
373,904;  395,341;  387,225;  391,935
373,981;  330,380;  332,516;  333,585
374,057;  357,440;  353,306;  355,945
374,134;  332,121;  331,706;  334,435
374,211;  350,560;  348,826;  351,835
374,287;  337,201;  338,565;  339,035
374,364;  368,181;  362,426;  365,335
374,440;  325,500;  319,035;  321,205
374,517;  367,641;  361,625;  366,995
374,593;  328,121;  326,896;  326,865
374,670;  344,401;  340,095;  342,905
374,746;  350,841;  346,915;  349,135
374,823;  371,121;  369,255;  368,775
374,899;  371,060;  366,836;  366,475
374,975;  344,401;  336,035;  341,495
375,052;  328,521;  319,776;  326,175
375,128;  328,940;  325,956;  331,675
375,205;  359,940;  353,665;  355,605
375,281;  336,380;  337,296;  336,395
375,357;  368,820;  361,026;  364,245
375,434;  337,361;  331,986;  338,045
375,510;  357,880;  347,755;  353,175
375,586;  358,100;  347,486;  349,845
375,663;  326,560;  321,926;  323,515
375,739;  359,681;  355,716;  358,675
375,815;  351,380;  346,366;  346,765
375,892;  346,901;  344,516;  348,555
375,968;  340,600;  331,605;  336,855
376,044;  341,741;  335,866;  339,405
376,120;  335,301;  332,535;  339,615
376,197;  352,121;  348,466;  352,185
376,273;  343,021;  340,516;  341,095
376,349;  384,141;  378,366;  379,125
376,425;  368,841;  362,935;  364,425
376,501;  353,560;  344,225;  347,555
376,578;  359,220;  362,885;  363,255
376,654;  383,401;  383,866;  382,945
376,730;  363,081;  360,266;  364,005
376,806;  382,641;  375,185;  376,845
376,882;  375,741;  377,176;  378,355
376,958;  379,820;  376,706;  373,325
377,034;  321,241;  319,695;  317,895
377,111;  373,621;  368,826;  369,285
377,187;  394,461;  390,845;  391,825
377,263;  385,121;  383,885;  384,725
377,339;  347,880;  341,445;  346,375
377,415;  363,440;  366,366;  365,685
377,491;  347,081;  342,885;  347,505
377,567;  360,980;  359,755;  360,685
377,643;  384,841;  380,076;  378,785
377,719;  365,880;  363,706;  367,845
377,795;  352,921;  345,725;  349,165
377,871;  372,720;  367,866;  370,355
377,947;  359,040;  348,236;  351,215
378,023;  347,921;  345,855;  349,075
378,099;  354,160;  349,035;  350,465
378,174;  374,861;  374,176;  374,825
378,250;  367,880;  363,105;  366,955
378,326;  375,121;  366,255;  370,045
378,402;  363,121;  357,685;  360,315
378,478;  362,461;  361,605;  365,295
378,554;  378,741;  370,396;  375,075
378,630;  368,380;  365,225;  365,285
378,706;  358,841;  358,076;  357,335
378,781;  396,201;  390,875;  394,875
378,857;  368,241;  363,185;  366,505
378,933;  365,241;  360,315;  365,855
379,009;  351,181;  351,426;  351,035
379,085;  394,341;  393,826;  391,725
379,160;  382,121;  377,246;  378,485
379,236;  381,341;  374,195;  376,655
379,312;  366,720;  359,915;  361,725
379,387;  354,000;  354,486;  355,105
379,463;  364,780;  359,836;  363,685
379,539;  374,801;  370,475;  373,395
379,615;  362,121;  359,056;  358,495
379,690;  406,320;  395,035;  398,755
379,766;  382,040;  373,276;  379,335
379,842;  390,581;  391,105;  391,375
379,917;  386,961;  380,935;  388,225
379,993;  373,600;  368,366;  373,385
380,068;  367,341;  359,236;  361,755
380,144;  388,621;  381,086;  383,405
380,220;  384,901;  382,086;  386,535
380,295;  359,301;  353,005;  355,035
380,371;  369,301;  359,935;  361,545
380,446;  384,301;  377,165;  381,125
380,522;  354,701;  348,766;  349,425
380,597;  361,040;  360,486;  359,965
380,673;  395,980;  390,456;  394,425
380,748;  358,021;  358,046;  358,445
380,824;  369,121;  367,676;  369,935
380,899;  395,241;  386,216;  388,425
380,975;  369,540;  365,475;  366,905
381,050;  355,480;  352,806;  352,825
381,126;  373,081;  370,526;  373,695
381,201;  408,401;  398,806;  402,495
381,277;  375,760;  373,435;  374,795
381,352;  392,500;  388,105;  390,855
381,427;  381,681;  372,586;  376,025
381,503;  382,980;  378,896;  379,385
381,578;  367,241;  360,605;  365,515
381,653;  374,521;  368,776;  372,375
381,729;  365,081;  361,535;  360,945
381,804;  372,421;  367,475;  368,805
381,879;  386,741;  383,306;  386,055
381,955;  360,280;  354,396;  356,545
382,030;  356,760;  356,556;  357,225
382,105;  377,280;  375,586;  372,555
382,181;  369,280;  367,466;  371,255
382,256;  378,540;  378,116;  374,765
382,331;  374,681;  367,216;  371,745
382,406;  357,361;  353,266;  357,745
382,482;  365,320;  361,315;  357,655
382,557;  364,500;  363,526;  366,745
382,632;  376,961;  370,595;  371,585
382,707;  364,720;  361,135;  365,615
382,782;  372,681;  361,516;  366,275
382,857;  364,100;  358,996;  361,035
382,933;  356,320;  351,776;  352,995
383,008;  348,540;  344,065;  345,165
383,083;  383,560;  376,866;  379,215
383,158;  385,220;  378,866;  381,615
383,233;  365,780;  362,385;  363,105
383,308;  364,040;  359,875;  362,675
383,383;  392,181;  389,445;  391,785
383,458;  364,940;  361,135;  360,475
383,533;  347,621;  342,456;  344,625
383,608;  391,880;  387,885;  390,385
383,683;  389,500;  385,046;  389,585
383,758;  383,341;  380,285;  380,925
383,833;  373,560;  370,296;  371,015
383,908;  348,021;  343,206;  342,165
383,983;  347,401;  346,296;  350,755
384,058;  355,401;  355,246;  357,655
384,133;  370,100;  368,185;  368,575
384,208;  380,701;  376,796;  379,565
384,283;  352,720;  348,736;  351,825
384,358;  387,280;  381,845;  387,485
384,433;  362,021;  357,496;  357,355
384,508;  374,060;  368,966;  373,895
384,583;  374,000;  373,725;  375,265
384,658;  372,341;  367,915;  371,275
384,732;  340,181;  339,456;  339,705
384,807;  369,341;  366,935;  369,005
384,882;  374,401;  371,246;  373,145
384,957;  372,121;  368,095;  371,985
385,032;  380,521;  375,426;  376,555
385,106;  374,841;  370,216;  371,515
385,181;  361,060;  351,385;  357,155
385,256;  366,621;  363,565;  366,745
385,331;  376,121;  371,935;  373,255
385,405;  384,201;  380,975;  381,445
385,480;  368,560;  365,695;  366,715
385,555;  400,361;  399,306;  400,405
385,630;  394,780;  390,956;  395,935
385,704;  376,560;  374,056;  377,105
385,779;  370,280;  364,405;  364,855
385,854;  372,461;  368,746;  369,975
385,928;  366,201;  363,016;  365,315
386,003;  402,540;  402,586;  405,115
386,078;  375,121;  372,466;  374,995
386,152;  401,660;  401,456;  401,815
386,227;  361,681;  357,646;  361,225
386,301;  384,000;  378,725;  380,385
386,376;  358,720;  348,695;  355,015
386,450;  384,260;  378,616;  381,145
386,525;  376,741;  373,556;  377,655
386,600;  389,060;  385,746;  385,925
386,674;  367,301;  364,076;  367,315
386,749;  380,241;  375,095;  381,315
386,823;  383,540;  377,435;  382,095
386,898;  383,980;  379,766;  380,535
386,972;  386,880;  380,966;  385,985
387,047;  371,780;  369,776;  374,355
387,121;  388,940;  379,695;  380,335
387,195;  364,081;  357,875;  359,895
387,270;  388,421;  385,625;  385,415
387,344;  411,841;  404,405;  407,055
387,419;  390,760;  385,665;  393,195
387,493;  380,600;  377,776;  379,825
387,567;  357,280;  355,005;  358,475
387,642;  408,940;  403,586;  405,945
387,716;  377,060;  369,565;  372,245
387,790;  371,940;  367,706;  371,225
387,865;  376,940;  372,806;  373,715
387,939;  409,320;  403,005;  404,415
388,013;  388,260;  384,806;  386,145
388,088;  374,660;  368,655;  370,085
388,162;  372,021;  370,135;  371,835
388,236;  376,701;  372,456;  375,275
388,310;  369,681;  361,966;  364,475
388,385;  402,621;  397,185;  400,845
388,459;  381,521;  379,996;  380,235
388,533;  362,681;  363,676;  362,565
388,607;  364,841;  366,776;  365,955
388,682;  380,040;  374,806;  375,745
388,756;  354,760;  355,035;  360,825
388,830;  393,600;  390,255;  394,075
388,904;  384,480;  378,276;  385,365
388,978;  375,621;  369,535;  370,165
389,052;  381,280;  375,396;  377,225
389,126;  377,621;  370,435;  376,195
389,200;  377,040;  372,665;  377,205
389,275;  370,861;  369,266;  367,695
389,349;  379,260;  374,695;  373,065
389,423;  373,741;  369,565;  369,375
389,497;  382,961;  380,966;  383,775
389,571;  372,100;  368,665;  370,175
389,645;  381,000;  376,806;  379,805
389,719;  375,121;  369,396;  372,955
389,793;  352,461;  346,576;  348,725
389,867;  404,720;  398,035;  402,955
389,941;  378,980;  375,375;  377,215
390,015;  366,560;  361,135;  364,515
390,089;  364,741;  360,426;  362,085
390,163;  375,880;  372,456;  375,935
390,237;  381,701;  375,435;  379,295
390,310;  385,280;  379,276;  382,155
390,384;  385,720;  376,546;  383,625
390,458;  407,241;  400,826;  403,825
390,532;  388,000;  383,496;  386,725
390,606;  368,220;  365,945;  369,265
390,680;  368,480;  366,466;  368,115
390,754;  369,621;  366,385;  368,915
390,827;  396,980;  388,276;  392,645
390,901;  398,141;  391,855;  396,215
390,975;  375,480;  368,905;  370,295
391,049;  368,181;  366,366;  364,315
391,123;  361,980;  362,685;  363,545
391,196;  368,801;  367,635;  367,855
391,270;  381,940;  378,426;  377,835
391,344;  367,401;  360,056;  359,585
391,418;  380,961;  372,975;  372,155
391,491;  364,241;  362,655;  363,995
391,565;  369,380;  362,065;  366,105
391,639;  400,741;  394,345;  397,875
391,712;  387,861;  385,815;  384,375
391,786;  387,540;  382,646;  386,785
391,860;  373,461;  369,385;  370,925
391,933;  371,980;  369,935;  371,115
392,007;  376,160;  371,355;  380,875
392,081;  401,901;  396,456;  399,955
392,154;  387,201;  377,845;  383,895
392,228;  401,380;  391,366;  394,685
392,301;  383,560;  376,266;  381,275
392,375;  394,421;  386,076;  389,995
392,448;  384,160;  379,516;  384,445
392,522;  380,820;  376,236;  379,965
392,595;  378,181;  370,105;  374,245
392,669;  380,361;  376,116;  379,675
392,742;  397,401;  390,975;  396,915
392,816;  400,641;  397,296;  400,205
392,889;  396,841;  392,746;  396,605
392,963;  410,380;  409,095;  409,745
393,036;  394,000;  385,345;  386,785
393,110;  397,341;  391,155;  393,885
393,183;  402,940;  400,836;  405,685
393,257;  421,780;  415,456;  417,745
393,330;  372,660;  365,845;  369,745
393,403;  396,241;  390,486;  395,585
393,477;  360,320;  355,845;  358,875
393,550;  392,841;  390,306;  395,545
393,623;  397,780;  388,396;  388,295
393,697;  410,760;  406,056;  406,835
393,770;  382,701;  376,556;  379,065
393,843;  407,701;  402,996;  406,915
393,917;  400,861;  394,216;  398,485
393,990;  414,421;  409,996;  410,125
394,063;  392,220;  386,855;  392,225
394,136;  394,100;  388,635;  391,675
394,210;  397,160;  393,336;  395,655
394,283;  408,361;  402,785;  407,175
394,356;  402,540;  399,165;  399,175
394,429;  402,500;  396,935;  398,825
394,502;  383,760;  382,016;  383,895
394,576;  419,540;  414,125;  414,715
394,649;  385,040;  378,776;  377,865
394,722;  408,820;  400,896;  403,785
394,795;  413,320;  408,306;  413,185
394,868;  386,741;  384,135;  385,985
394,941;  379,201;  376,435;  375,265
395,014;  422,861;  417,056;  420,205
395,088;  402,260;  398,956;  399,175
395,161;  399,260;  395,466;  398,685
395,234;  412,621;  409,236;  410,735
395,307;  408,000;  402,236;  405,525
395,380;  391,341;  384,736;  385,325
395,453;  438,600;  436,845;  437,285
395,526;  413,181;  408,385;  412,495
395,599;  434,480;  426,926;  430,645
395,672;  397,241;  394,586;  394,895
395,745;  420,560;  417,125;  421,075
395,818;  381,861;  376,306;  378,615
395,891;  388,980;  385,635;  387,695
395,964;  416,401;  415,896;  414,885
396,036;  391,461;  387,486;  384,175
396,109;  398,760;  392,076;  395,785
396,182;  402,681;  396,766;  399,545
396,255;  401,861;  399,225;  398,845
396,328;  412,380;  410,065;  411,075
396,401;  371,940;  370,746;  371,295
396,474;  383,100;  381,086;  381,505
396,547;  402,100;  397,046;  400,645
396,619;  398,701;  390,755;  390,525
396,692;  411,320;  404,866;  411,355
396,765;  373,741;  370,616;  372,985
396,838;  395,600;  388,225;  388,295
396,911;  370,301;  371,266;  373,155
396,983;  398,560;  392,496;  392,385
397,056;  376,461;  372,355;  374,095
397,129;  388,181;  387,796;  389,615
397,201;  396,021;  391,556;  389,605
397,274;  387,641;  385,366;  389,335
397,347;  366,621;  363,345;  363,665
397,420;  386,461;  384,605;  387,195
397,492;  390,341;  388,296;  388,685
397,565;  379,600;  375,915;  379,595
397,637;  372,880;  369,366;  372,085
397,710;  357,301;  351,586;  350,295
397,783;  417,720;  412,855;  414,805
397,855;  349,160;  345,345;  347,055
397,928;  367,540;  368,336;  371,095
398,000;  400,741;  395,866;  396,635
398,073;  384,241;  386,546;  384,745
398,146;  381,681;  376,706;  377,295
398,218;  394,720;  390,255;  393,135
398,291;  390,341;  385,806;  387,915
398,363;  384,801;  381,755;  384,505
398,436;  373,060;  369,855;  374,675
398,508;  384,220;  383,266;  385,345
398,581;  378,820;  378,206;  380,565
398,653;  375,581;  374,255;  373,825
398,726;  381,201;  378,535;  383,385
398,798;  386,701;  383,306;  387,885
398,870;  398,260;  391,116;  396,905
398,943;  372,440;  366,236;  369,775
399,015;  369,720;  365,676;  368,815
399,088;  392,421;  389,655;  388,435
399,160;  372,421;  368,076;  368,815
399,232;  356,260;  350,405;  352,095
399,305;  375,681;  368,435;  372,935
399,377;  379,880;  377,905;  377,535
399,449;  389,160;  386,246;  388,735
399,522;  429,040;  421,875;  424,965
399,594;  371,141;  364,576;  365,315
399,666;  387,440;  382,625;  385,235
399,738;  378,701;  373,336;  375,225
399,811;  383,461;  376,736;  377,025
399,883;  392,861;  386,105;  388,295
399,955;  393,600;  389,855;  389,195
400,027;  350,820;  345,945;  349,545
400,100;  406,121;  407,366;  409,275
400,172;  353,141;  348,296;  349,645
400,244;  378,401;  378,225;  381,195
400,316;  399,940;  393,016;  393,505
400,388;  391,000;  389,385;  393,005
400,460;  367,880;  359,306;  364,605
400,532;  355,801;  350,826;  351,835
400,605;  381,301;  377,736;  384,975
400,677;  399,720;  402,285;  404,675
400,749;  398,901;  395,685;  398,125
400,821;  385,500;  385,956;  388,105
400,893;  378,421;  379,445;  382,305
400,965;  393,820;  386,755;  392,785
401,037;  390,461;  387,565;  392,525
401,109;  375,720;  370,725;  373,835
401,181;  379,621;  380,716;  385,485

