pru
Integration time [ms]:   0,150
Averaging Nr. [scans]: 50
Smoothing Nr. [pixels]: 0
Data measured with spectrometer [name]: 7416147SP
Wave   ;Sample   ;Dark     ;Reference
[nm]   ;[counts] ;[counts] ;[counts] 

230,218;  296,300;  290,315;  293,845
230,311;  319,140;  319,885;  318,565
230,404;  309,160;  309,855;  312,875
230,497;  313,480;  317,385;  315,715
230,591;  333,460;  333,426;  335,355
230,684;  331,200;  326,486;  329,355
230,777;  314,960;  311,736;  314,765
230,870;  319,360;  313,326;  316,955
230,964;  314,040;  310,885;  314,745
231,057;  346,180;  342,496;  343,475
231,150;  336,200;  331,695;  332,715
231,243;  331,320;  330,635;  332,775
231,336;  333,740;  331,375;  331,335
231,430;  319,380;  316,496;  317,715
231,523;  324,660;  324,516;  326,785
231,616;  310,440;  305,445;  309,685
231,709;  345,640;  328,065;  330,025
231,802;  317,000;  300,945;  301,885
231,895;  311,460;  299,836;  300,315
231,988;  322,320;  315,655;  318,535
232,082;  310,100;  298,155;  302,425
232,175;  319,420;  302,155;  306,175
232,268;  318,260;  301,266;  305,345
232,361;  315,320;  304,806;  307,515
232,454;  337,280;  322,396;  323,025
232,547;  330,760;  318,716;  322,655
232,640;  307,740;  296,766;  294,035
232,733;  327,540;  314,116;  323,045
232,826;  299,660;  288,915;  295,035
232,919;  329,240;  313,826;  312,665
233,012;  307,100;  293,646;  292,775
233,105;  311,760;  294,766;  298,815
233,199;  314,380;  299,875;  304,045
233,292;  306,660;  293,475;  296,235
233,385;  276,020;  263,426;  262,225
233,478;  311,320;  293,885;  295,685
233,571;  337,760;  324,586;  327,675
233,664;  322,920;  305,996;  308,435
233,757;  293,840;  280,796;  281,395
233,850;  301,040;  282,255;  285,825
233,943;  305,680;  290,896;  292,195
234,035;  315,460;  300,576;  302,355
234,128;  296,640;  281,836;  283,945
234,221;  310,820;  297,665;  298,245
234,314;  322,560;  304,915;  311,975
234,407;  320,560;  302,935;  309,075
234,500;  294,360;  277,625;  281,875
234,593;  302,800;  287,095;  285,735
234,686;  307,600;  293,746;  293,765
234,779;  303,480;  291,266;  293,165
234,872;  298,080;  281,806;  281,565
234,965;  300,800;  292,806;  290,795
235,058;  291,820;  274,155;  276,215
235,150;  309,240;  285,776;  290,805
235,243;  296,360;  282,736;  284,425
235,336;  317,460;  300,695;  304,545
235,429;  286,560;  273,646;  272,515
235,522;  346,720;  330,996;  335,445
235,615;  283,120;  262,276;  265,145
235,707;  296,720;  282,415;  282,335
235,800;  300,140;  289,815;  290,515
235,893;  306,860;  289,956;  292,955
235,986;  313,060;  298,266;  299,325
236,079;  305,800;  286,586;  291,125
236,171;  284,820;  270,725;  271,865
236,264;  324,040;  312,635;  313,275
236,357;  303,640;  290,986;  293,865
236,450;  322,460;  315,225;  317,215
236,542;  283,880;  267,065;  272,575
236,635;  330,100;  313,546;  316,385
236,728;  300,900;  285,516;  288,115
236,821;  291,940;  280,165;  283,715
236,913;  290,740;  277,896;  276,315
237,006;  286,020;  271,605;  275,435
237,099;  295,400;  283,896;  285,575
237,191;  317,220;  298,796;  300,225
237,284;  282,140;  267,896;  272,995
237,377;  309,460;  294,725;  297,495
237,470;  297,300;  285,415;  287,875
237,562;  293,340;  276,866;  275,785
237,655;  339,800;  320,945;  324,565
237,747;  308,780;  292,695;  295,845
237,840;  326,840;  313,086;  314,435
237,933;  314,520;  300,445;  301,555
238,025;  320,080;  301,415;  301,595
238,118;  296,680;  282,456;  287,755
238,211;  284,940;  268,155;  272,375
238,303;  286,680;  272,296;  273,415
238,396;  276,380;  268,065;  271,945
238,488;  306,460;  292,625;  291,075
238,581;  299,500;  287,855;  289,445
238,673;  302,360;  285,766;  286,865
238,766;  300,980;  282,635;  283,185
238,859;  287,840;  273,586;  276,105
238,951;  297,220;  281,095;  282,835
239,044;  289,980;  276,496;  279,525
239,136;  288,960;  269,035;  271,705
239,229;  298,100;  280,665;  283,435
239,321;  288,660;  271,255;  276,105
239,414;  309,480;  289,875;  292,345
239,506;  302,540;  284,625;  290,655
239,599;  329,140;  316,315;  315,935
239,691;  305,960;  287,945;  287,755
239,784;  318,220;  301,926;  304,175
239,876;  308,600;  295,005;  294,715
239,969;  299,340;  284,426;  288,635
240,061;  288,240;  269,505;  272,655
240,153;  294,620;  276,776;  278,405
240,246;  306,600;  287,635;  287,925
240,338;  327,740;  315,285;  314,405
240,431;  286,800;  268,896;  270,455
240,523;  282,020;  269,315;  270,665
240,615;  315,120;  299,086;  301,495
240,708;  325,960;  309,945;  312,145
240,800;  304,340;  286,956;  289,175
240,893;  289,960;  272,216;  274,965
240,985;  309,880;  286,116;  289,995
241,077;  288,820;  269,866;  271,905
241,170;  317,020;  300,355;  300,805
241,262;  311,500;  293,695;  290,825
241,354;  271,140;  252,305;  253,985
241,447;  300,300;  281,326;  283,905
241,539;  285,260;  266,746;  270,745
241,631;  329,820;  314,366;  317,275
241,724;  278,340;  259,135;  260,655
241,816;  296,820;  279,385;  281,545
241,908;  301,160;  275,056;  280,445
242,000;  297,920;  277,625;  279,505
242,093;  299,560;  277,725;  280,745
242,185;  295,800;  277,736;  277,535
242,277;  293,840;  274,695;  277,115
242,369;  299,640;  282,146;  286,335
242,462;  294,440;  274,405;  274,215
242,554;  296,080;  277,146;  281,105
242,646;  302,560;  283,146;  286,575
242,738;  323,180;  303,255;  307,195
242,830;  276,420;  259,026;  260,415
242,923;  314,340;  297,035;  299,015
243,015;  283,740;  268,655;  266,675
243,107;  285,780;  267,676;  271,255
243,199;  299,160;  276,345;  278,365
243,291;  287,800;  272,125;  276,215
243,383;  269,420;  254,826;  256,465
243,476;  277,580;  269,435;  268,005
243,568;  296,300;  280,915;  284,885
243,660;  293,780;  273,385;  279,575
243,752;  300,260;  279,796;  287,275
243,844;  320,660;  300,766;  302,705
243,936;  305,120;  291,956;  293,555
244,028;  317,720;  304,796;  307,475
244,120;  269,320;  254,346;  255,525
244,212;  308,460;  293,826;  293,755
244,305;  278,060;  268,496;  267,935
244,397;  308,140;  289,165;  291,675
244,489;  318,740;  304,276;  307,925
244,581;  314,420;  299,255;  300,795
244,673;  297,340;  281,806;  283,225
244,765;  302,160;  286,035;  290,565
244,857;  297,720;  284,986;  287,335
244,949;  301,360;  283,956;  284,945
245,041;  266,940;  250,865;  255,005
245,133;  310,940;  293,695;  296,625
245,225;  294,320;  277,915;  280,695
245,317;  300,000;  289,456;  289,025
245,409;  278,700;  263,755;  269,375
245,501;  301,040;  288,496;  293,045
245,593;  304,080;  286,255;  290,055
245,685;  298,780;  285,405;  288,735
245,776;  301,540;  285,945;  287,235
245,868;  282,820;  271,276;  272,565
245,960;  279,840;  265,875;  263,405
246,052;  323,800;  310,766;  310,445
246,144;  307,840;  294,165;  294,205
246,236;  297,920;  283,576;  283,565
246,328;  303,280;  291,345;  293,965
246,420;  294,440;  279,746;  280,855
246,512;  320,220;  308,236;  310,455
246,604;  295,860;  282,526;  286,825
246,695;  286,020;  273,345;  272,135
246,787;  309,880;  293,526;  301,145
246,879;  308,960;  292,716;  297,145
246,971;  313,640;  299,276;  300,965
247,063;  289,640;  273,255;  278,605
247,155;  314,320;  294,516;  297,195
247,246;  303,900;  283,266;  283,715
247,338;  302,040;  288,116;  294,265
247,430;  315,180;  299,945;  303,475
247,522;  316,340;  297,546;  300,555
247,613;  315,420;  296,586;  299,675
247,705;  307,100;  286,896;  288,445
247,797;  327,560;  305,776;  307,475
247,889;  318,600;  294,706;  295,475
247,980;  320,720;  285,676;  291,995
248,072;  324,480;  282,845;  285,895
248,164;  346,120;  293,216;  298,385
248,256;  302,980;  271,366;  274,105
248,347;  329,100;  309,785;  311,065
248,439;  297,540;  283,165;  282,675
248,531;  318,440;  303,885;  304,835
248,622;  323,800;  307,206;  308,325
248,714;  293,600;  276,945;  278,365
248,806;  311,160;  293,655;  298,015
248,897;  307,240;  291,535;  292,985
248,989;  281,000;  263,956;  263,855
249,081;  297,220;  283,355;  284,905
249,172;  305,580;  289,926;  295,135
249,264;  286,920;  272,076;  273,435
249,356;  291,260;  269,326;  273,745
249,447;  299,640;  282,176;  284,525
249,539;  299,220;  283,086;  284,645
249,630;  305,160;  289,875;  288,495
249,722;  332,460;  313,276;  315,395
249,813;  301,120;  280,496;  284,125
249,905;  312,040;  289,426;  293,665
249,997;  301,000;  281,445;  280,615
250,088;  307,020;  282,255;  288,985
250,180;  303,420;  283,695;  284,575
250,271;  304,920;  281,195;  280,335
250,363;  342,080;  319,105;  320,755
250,454;  294,720;  273,035;  275,615
250,546;  312,120;  285,926;  289,415
250,637;  284,640;  264,445;  261,845
250,729;  293,400;  266,505;  269,555
250,820;  316,020;  289,915;  292,965
250,912;  288,260;  262,355;  267,085
251,003;  301,340;  278,396;  280,475
251,095;  307,760;  282,086;  284,555
251,186;  298,320;  271,415;  274,775
251,277;  302,740;  271,986;  275,265
251,369;  303,420;  275,975;  275,105
251,460;  295,280;  271,456;  273,815
251,552;  311,080;  278,475;  279,655
251,643;  302,080;  268,796;  267,375
251,735;  307,040;  265,246;  267,375
251,826;  296,480;  258,016;  263,245
251,917;  324,820;  278,035;  279,115
252,009;  324,080;  273,396;  275,605
252,100;  332,640;  281,426;  283,345
252,191;  353,680;  289,996;  292,015
252,283;  343,860;  265,095;  267,705
252,374;  366,920;  278,296;  278,375
252,465;  385,560;  295,405;  298,605
252,557;  392,140;  283,576;  286,365
252,648;  390,380;  265,146;  268,635
252,739;  423,580;  280,516;  282,125
252,831;  419,520;  270,836;  280,355
252,922;  457,520;  282,296;  280,045
253,013;  496,680;  273,956;  284,285
253,104;  560,560;  270,076;  270,335
253,196;  664,560;  271,366;  271,175
253,287;  810,300;  281,836;  277,135
253,378; 1180,200;  276,276;  277,975
253,469; 3735,220;  272,385;  276,445
253,561;20639,760;  273,496;  278,855
253,652;40573,641;  282,266;  280,015
253,743; 6589,660;  276,216;  280,985
253,834;  618,500;  259,146;  265,875
253,926;  498,680;  262,605;  267,485
254,017;  476,060;  284,236;  290,235
254,108;  449,620;  291,836;  290,565
254,199;  425,600;  285,326;  291,185
254,290;  428,080;  312,725;  313,865
254,381;  414,500;  287,076;  291,155
254,472;  414,300;  291,935;  300,495
254,564;  409,940;  312,766;  307,565
254,655;  393,280;  304,755;  308,105
254,746;  348,440;  264,896;  264,025
254,837;  377,200;  293,105;  298,435
254,928;  359,520;  266,836;  271,975
255,019;  366,960;  283,505;  286,805
255,110;  370,940;  300,165;  301,665
255,201;  347,820;  281,155;  287,655
255,292;  373,400;  312,706;  316,275
255,383;  345,540;  275,785;  275,725
255,474;  341,120;  273,306;  273,095
255,566;  345,880;  283,926;  286,645
255,657;  347,580;  298,556;  302,445
255,748;  305,780;  271,415;  278,125
255,839;  320,880;  280,695;  282,485
255,930;  326,140;  287,866;  289,735
256,021;  336,860;  298,845;  298,115
256,112;  316,740;  278,456;  278,735
256,203;  343,060;  311,866;  313,365
256,294;  331,440;  293,496;  299,575
256,384;  305,540;  270,565;  275,715
256,475;  320,120;  290,996;  294,595
256,566;  311,960;  281,246;  287,825
256,657;  301,120;  278,945;  278,915
256,748;  296,960;  281,285;  284,675
256,839;  294,400;  274,426;  273,555
256,930;  303,620;  279,165;  283,055
257,021;  330,900;  304,155;  306,465
257,112;  321,280;  304,926;  309,235
257,203;  279,080;  258,445;  259,825
257,294;  274,060;  254,465;  262,175
257,385;  308,060;  288,526;  294,205
257,475;  299,600;  279,135;  278,545
257,566;  305,060;  287,586;  292,255
257,657;  287,540;  269,595;  270,025
257,748;  292,040;  275,935;  276,095
257,839;  298,100;  287,915;  286,025
257,930;  309,740;  285,736;  290,395
258,020;  284,660;  269,716;  271,535
258,111;  277,160;  262,225;  263,255
258,202;  306,620;  288,326;  289,935
258,293;  295,600;  284,655;  285,305
258,384;  321,140;  305,595;  307,665
258,474;  302,880;  288,676;  291,995
258,565;  280,900;  271,635;  273,435
258,656;  303,920;  292,966;  295,145
258,747;  284,220;  271,475;  275,425
258,837;  283,820;  274,246;  273,695
258,928;  293,800;  275,785;  278,605
259,019;  281,040;  268,415;  270,595
259,109;  283,220;  269,685;  269,425
259,200;  296,480;  286,105;  289,815
259,291;  282,140;  269,975;  271,655
259,381;  301,360;  293,026;  295,635
259,472;  306,940;  295,796;  296,545
259,563;  310,580;  303,065;  305,845
259,653;  290,900;  278,296;  281,385
259,744;  278,020;  268,826;  267,735
259,835;  311,140;  300,975;  302,815
259,925;  282,820;  271,505;  277,075
260,016;  297,720;  286,746;  287,585
260,107;  272,040;  258,035;  264,715
260,197;  293,140;  283,975;  286,325
260,288;  286,320;  274,565;  279,155
260,378;  278,280;  267,195;  271,275
260,469;  297,360;  285,915;  288,765
260,560;  278,880;  266,146;  269,495
260,650;  276,720;  271,736;  275,665
260,741;  286,440;  276,366;  279,035
260,831;  285,620;  272,855;  275,905
260,922;  277,780;  266,206;  269,545
261,012;  281,400;  277,665;  278,255
261,103;  309,220;  301,785;  302,875
261,193;  315,460;  302,086;  303,915
261,284;  280,040;  271,806;  273,005
261,374;  309,800;  296,385;  303,855
261,465;  300,720;  287,755;  289,435
261,555;  283,220;  282,255;  280,715
261,646;  300,560;  292,475;  294,375
261,736;  297,100;  287,435;  290,535
261,827;  284,140;  283,716;  284,935
261,917;  316,380;  311,736;  311,595
262,007;  293,480;  283,986;  288,075
262,098;  289,280;  289,445;  287,725
262,188;  335,300;  326,655;  333,475
262,279;  303,940;  300,185;  299,795
262,369;  298,060;  286,285;  289,225
262,459;  293,160;  288,246;  290,365
262,550;  309,020;  303,266;  301,565
262,640;  282,180;  273,005;  276,555
262,731;  307,140;  300,935;  299,335
262,821;  318,400;  310,535;  312,255
262,911;  306,280;  297,875;  298,285
263,002;  297,740;  289,625;  290,825
263,092;  308,580;  303,956;  306,295
263,182;  289,860;  284,806;  285,755
263,273;  290,940;  285,426;  289,395
263,363;  304,280;  300,746;  299,385
263,453;  275,280;  267,375;  268,605
263,543;  301,240;  289,815;  289,615
263,634;  270,820;  266,516;  266,365
263,724;  295,480;  292,586;  293,065
263,814;  316,220;  308,706;  308,885
263,904;  289,120;  281,966;  285,905
263,995;  333,400;  322,276;  322,325
264,085;  299,720;  295,855;  294,575
264,175;  299,860;  296,706;  296,385
264,265;  319,280;  321,105;  321,865
264,356;  280,480;  270,466;  274,385
264,446;  319,480;  308,996;  307,575
264,536;  301,420;  294,026;  297,515
264,626;  324,380;  318,486;  320,175
264,716;  308,920;  298,435;  303,275
264,806;  320,160;  308,776;  310,415
264,897;  264,280;  258,135;  258,615
264,987;  313,140;  303,535;  304,475
265,077;  311,040;  287,046;  292,545
265,167;  370,880;  310,216;  311,575
265,257;  332,420;  290,445;  290,535
265,347;  333,440;  294,336;  295,795
265,437;  321,720;  296,176;  300,635
265,527;  319,240;  293,155;  294,765
265,617;  292,480;  279,875;  285,145
265,708;  316,700;  314,216;  314,825
265,798;  310,200;  305,415;  307,055
265,888;  303,920;  300,716;  305,545
265,978;  299,780;  294,496;  295,825
266,068;  315,720;  310,155;  315,855
266,158;  301,600;  294,005;  297,205
266,248;  277,860;  274,016;  276,865
266,338;  319,300;  313,035;  314,815
266,428;  306,160;  300,635;  302,655
266,518;  316,760;  311,405;  315,615
266,608;  297,280;  299,725;  294,215
266,698;  279,820;  273,586;  276,245
266,788;  282,320;  274,456;  277,745
266,878;  335,920;  325,776;  330,865
266,968;  309,440;  306,725;  309,425
267,058;  301,540;  297,375;  302,895
267,147;  313,020;  301,845;  302,905
267,237;  299,780;  291,815;  295,765
267,327;  288,700;  286,755;  287,895
267,417;  305,940;  301,225;  303,385
267,507;  298,320;  292,176;  294,215
267,597;  289,100;  282,026;  283,655
267,687;  290,080;  285,165;  287,755
267,777;  291,420;  283,986;  284,615
267,867;  316,820;  312,125;  312,585
267,956;  306,980;  302,466;  304,005
268,046;  307,580;  305,466;  310,865
268,136;  302,620;  296,875;  298,905
268,226;  279,380;  274,885;  274,965
268,316;  279,200;  280,766;  280,845
268,406;  295,820;  289,516;  287,595
268,495;  291,000;  284,415;  287,935
268,585;  310,960;  306,716;  309,605
268,675;  286,880;  284,336;  285,535
268,765;  302,420;  296,355;  300,115
268,854;  295,620;  285,935;  286,715
268,944;  297,000;  291,646;  293,805
269,034;  286,440;  283,986;  289,715
269,124;  289,280;  287,216;  290,705
269,213;  290,520;  286,336;  285,525
269,303;  291,180;  290,466;  288,585
269,393;  306,140;  299,845;  298,345
269,483;  306,760;  300,966;  302,735
269,572;  289,980;  282,875;  284,665
269,662;  285,360;  276,105;  283,315
269,752;  324,200;  312,736;  315,705
269,841;  276,900;  266,046;  269,455
269,931;  287,200;  281,586;  283,075
270,021;  306,980;  300,766;  304,675
270,110;  291,580;  285,695;  288,925
270,200;  300,100;  291,665;  299,445
270,289;  284,920;  280,785;  281,105
270,379;  305,900;  301,466;  302,775
270,469;  296,040;  290,556;  289,955
270,558;  315,180;  303,655;  302,185
270,648;  289,640;  282,785;  284,885
270,737;  297,040;  288,526;  291,525
270,827;  317,720;  310,185;  313,455
270,916;  295,820;  286,935;  289,915
271,006;  298,080;  293,475;  292,885
271,096;  326,400;  317,005;  317,215
271,185;  293,660;  289,896;  289,145
271,275;  308,760;  300,706;  303,575
271,364;  284,960;  281,535;  285,725
271,454;  320,580;  308,255;  315,275
271,543;  300,380;  296,935;  297,745
271,633;  299,200;  293,926;  292,835
271,722;  298,820;  292,255;  296,455
271,812;  290,300;  286,296;  289,275
271,901;  296,580;  292,326;  293,765
271,990;  297,000;  291,836;  290,915
272,080;  296,460;  290,635;  294,915
272,169;  304,160;  301,905;  302,555
272,259;  299,920;  293,225;  292,695
272,348;  310,940;  305,796;  308,535
272,438;  301,800;  296,935;  293,635
272,527;  310,240;  303,996;  304,365
272,616;  307,080;  301,866;  305,295
272,706;  328,420;  320,935;  323,195
272,795;  320,080;  314,076;  315,755
272,884;  300,720;  297,076;  299,515
272,974;  319,660;  317,975;  319,965
273,063;  345,500;  338,206;  337,765
273,152;  316,140;  310,306;  307,735
273,242;  325,300;  320,276;  324,915
273,331;  322,620;  319,315;  322,835
273,420;  311,340;  301,105;  310,255
273,510;  313,840;  307,355;  308,155
273,599;  314,700;  303,255;  306,195
273,688;  306,620;  302,605;  301,885
273,778;  290,100;  285,065;  287,095
273,867;  326,960;  320,266;  317,015
273,956;  307,560;  303,725;  303,805
274,045;  280,140;  273,966;  275,965
274,135;  310,680;  303,905;  305,375
274,224;  294,500;  286,516;  290,045
274,313;  313,180;  305,586;  307,745
274,402;  287,460;  284,796;  287,085
274,491;  317,460;  310,975;  312,995
274,581;  309,040;  301,415;  302,765
274,670;  294,400;  293,146;  294,385
274,759;  306,100;  299,405;  300,435
274,848;  282,780;  276,655;  279,925
274,937;  289,660;  289,945;  287,635
275,026;  290,760;  285,616;  287,835
275,116;  324,920;  316,415;  315,805
275,205;  289,620;  266,926;  271,135
275,294;  330,820;  302,315;  304,335
275,383;  305,300;  299,905;  297,985
275,472;  292,480;  290,005;  290,825
275,561;  293,380;  290,505;  290,285
275,650;  313,140;  306,046;  306,435
275,739;  301,640;  294,776;  297,985
275,828;  280,080;  274,635;  277,965
275,917;  314,320;  312,065;  306,825
276,006;  301,300;  295,426;  296,835
276,095;  297,620;  294,526;  298,665
276,184;  310,440;  309,556;  307,945
276,273;  304,220;  303,105;  304,505
276,362;  279,240;  275,896;  278,535
276,451;  296,540;  291,306;  291,915
276,540;  301,400;  295,896;  296,105
276,629;  298,680;  292,576;  293,225
276,718;  280,420;  270,695;  274,545
276,807;  276,840;  271,625;  274,825
276,896;  285,680;  280,526;  284,495
276,985;  291,520;  283,616;  289,365
277,074;  305,280;  299,105;  300,525
277,163;  300,220;  294,746;  299,085
277,252;  280,600;  279,646;  276,465
277,341;  287,720;  281,236;  289,265
277,430;  284,280;  276,845;  279,355
277,519;  305,460;  298,956;  301,695
277,608;  273,420;  266,546;  267,775
277,696;  271,020;  266,975;  269,445
277,785;  282,240;  284,095;  283,485
277,874;  301,160;  299,605;  296,795
277,963;  293,320;  288,155;  289,995
278,052;  264,280;  264,776;  265,525
278,141;  297,620;  288,415;  290,745
278,229;  295,420;  290,146;  291,935
278,318;  271,160;  268,236;  271,495
278,407;  293,920;  285,576;  285,935
278,496;  295,440;  289,915;  291,965
278,585;  310,020;  300,486;  302,275
278,673;  267,900;  263,836;  266,715
278,762;  274,620;  266,176;  270,485
278,851;  296,060;  285,496;  286,035
278,940;  309,120;  303,685;  303,305
279,028;  305,860;  296,306;  299,585
279,117;  292,400;  282,725;  286,655
279,206;  288,060;  279,475;  284,105
279,294;  284,460;  284,396;  286,665
279,383;  289,920;  286,646;  287,335
279,472;  302,320;  298,095;  298,295
279,561;  288,880;  283,355;  284,975
279,649;  314,080;  308,535;  308,935
279,738;  263,920;  255,566;  255,215
279,827;  313,800;  306,785;  308,805
279,915;  282,440;  275,285;  276,335
280,004;  292,380;  286,565;  288,905
280,092;  310,880;  305,236;  306,635
280,181;  289,080;  280,516;  282,605
280,270;  296,980;  277,866;  281,595
280,358;  307,560;  291,366;  288,915
280,447;  278,320;  261,415;  264,455
280,535;  284,080;  276,016;  275,945
280,624;  282,920;  274,185;  276,805
280,713;  286,160;  277,146;  283,385
280,801;  296,860;  293,116;  293,805
280,890;  299,280;  289,716;  295,475
280,978;  285,940;  280,755;  281,945
281,067;  254,600;  250,676;  255,865
281,155;  280,080;  274,855;  275,705
281,244;  328,180;  313,595;  316,445
281,332;  300,500;  290,845;  293,825
281,421;  279,600;  271,605;  273,675
281,509;  289,360;  284,646;  282,415
281,598;  266,500;  262,435;  263,765
281,686;  296,220;  290,776;  288,945
281,775;  291,820;  285,516;  290,815
281,863;  284,900;  278,016;  279,225
281,951;  286,400;  267,665;  270,735
282,040;  311,820;  300,315;  301,115
282,128;  303,060;  288,375;  294,235
282,217;  273,100;  265,926;  266,075
282,305;  306,620;  294,796;  294,045
282,393;  295,900;  286,505;  284,595
282,482;  290,040;  279,535;  283,255
282,570;  280,820;  266,945;  270,215
282,658;  288,300;  276,116;  277,715
282,747;  279,320;  265,026;  267,905
282,835;  321,220;  306,076;  309,035
282,923;  274,440;  264,655;  267,805
283,012;  298,760;  291,366;  296,345
283,100;  279,620;  269,185;  274,675
283,188;  265,780;  261,125;  262,525
283,277;  289,880;  284,336;  284,745
283,365;  276,460;  271,676;  278,375
283,453;  274,320;  264,755;  270,455
283,542;  297,860;  290,896;  293,765
283,630;  285,000;  276,195;  278,595
283,718;  278,360;  271,195;  274,365
283,806;  248,460;  241,706;  247,485
283,894;  278,960;  274,336;  274,395
283,983;  284,740;  282,165;  282,605
284,071;  294,060;  285,285;  291,495
284,159;  314,000;  309,125;  314,805
284,247;  293,780;  287,466;  288,555
284,335;  291,660;  286,935;  287,485
284,424;  288,720;  283,915;  288,465
284,512;  289,660;  283,475;  286,175
284,600;  286,860;  279,415;  280,145
284,688;  316,700;  312,815;  317,115
284,776;  291,580;  286,815;  287,745
284,864;  315,080;  302,125;  308,655
284,952;  294,100;  289,625;  289,025
285,041;  308,100;  298,255;  298,145
285,129;  302,080;  299,435;  302,445
285,217;  305,940;  300,056;  303,885
285,305;  323,740;  318,676;  319,885
285,393;  281,760;  275,776;  278,695
285,481;  300,880;  296,665;  298,405
285,569;  288,000;  282,966;  285,145
285,657;  302,540;  295,165;  296,255
285,745;  298,700;  292,655;  293,125
285,833;  300,140;  289,505;  293,165
285,921;  306,160;  298,116;  300,945
286,009;  307,940;  301,105;  303,655
286,097;  301,100;  298,236;  301,315
286,185;  290,860;  284,405;  284,795
286,273;  286,580;  283,415;  284,655
286,361;  317,140;  307,915;  311,825
286,449;  298,100;  296,195;  294,565
286,537;  309,220;  304,105;  302,085
286,625;  297,280;  291,185;  293,415
286,713;  283,300;  275,806;  280,315
286,801;  310,800;  312,076;  307,795
286,889;  319,420;  319,435;  320,055
286,976;  293,940;  287,905;  291,205
287,064;  315,180;  307,635;  311,875
287,152;  308,580;  303,576;  305,585
287,240;  312,620;  309,185;  308,845
287,328;  290,460;  287,685;  281,755
287,416;  295,000;  290,975;  292,385
287,504;  304,600;  294,435;  298,285
287,591;  302,120;  298,176;  300,225
287,679;  289,080;  286,095;  286,145
287,767;  305,920;  298,206;  296,985
287,855;  311,600;  303,736;  307,515
287,943;  313,220;  306,716;  309,435
288,030;  294,780;  293,456;  291,795
288,118;  324,560;  318,255;  318,995
288,206;  279,020;  274,956;  275,705
288,294;  304,980;  301,986;  304,135
288,382;  309,540;  300,776;  303,615
288,469;  309,300;  304,396;  308,895
288,557;  298,360;  294,095;  292,615
288,645;  329,420;  323,396;  323,315
288,732;  277,800;  278,915;  279,235
288,820;  307,960;  304,576;  306,785
288,908;  308,340;  304,826;  303,915
288,995;  316,600;  310,945;  310,305
289,083;  298,660;  293,026;  292,935
289,171;  330,140;  320,165;  325,565
289,258;  368,820;  322,176;  324,305
289,346;  434,400;  326,266;  329,365
289,434;  318,480;  303,435;  306,185
289,521;  288,520;  280,415;  286,295
289,609;  327,220;  320,426;  325,405
289,697;  317,540;  312,336;  315,125
289,784;  299,300;  295,445;  295,775
289,872;  313,960;  306,905;  313,015
289,959;  289,640;  282,375;  283,415
290,047;  303,340;  296,546;  300,865
290,134;  280,580;  272,665;  273,815
290,222;  316,740;  308,915;  308,665
290,310;  314,560;  304,905;  307,145
290,397;  334,220;  328,505;  332,835
290,485;  293,240;  290,815;  293,005
290,572;  319,140;  313,225;  314,645
290,660;  309,920;  306,385;  306,205
290,747;  299,380;  295,165;  292,775
290,835;  302,420;  299,016;  302,505
290,922;  307,060;  304,016;  305,515
291,009;  303,600;  297,676;  301,715
291,097;  305,420;  297,926;  300,755
291,184;  340,560;  332,716;  338,585
291,272;  291,920;  282,966;  288,375
291,359;  286,960;  283,915;  289,305
291,447;  308,640;  303,086;  304,735
291,534;  332,120;  327,326;  323,005
291,621;  301,480;  302,845;  301,105
291,709;  287,280;  285,716;  283,705
291,796;  321,040;  320,146;  316,555
291,884;  293,720;  291,466;  296,115
291,971;  325,100;  315,065;  320,295
292,058;  295,000;  288,725;  288,985
292,146;  298,360;  293,746;  297,955
292,233;  286,960;  285,426;  284,765
292,320;  299,580;  294,306;  297,685
292,408;  317,600;  309,086;  308,565
292,495;  304,160;  290,565;  293,085
292,582;  293,000;  286,845;  287,375
292,669;  288,200;  281,415;  286,055
292,757;  283,420;  282,176;  283,865
292,844;  315,640;  312,935;  313,175
292,931;  285,520;  275,176;  277,485
293,018;  295,180;  291,516;  289,915
293,106;  303,840;  299,966;  303,035
293,193;  276,260;  272,415;  274,385
293,280;  301,680;  297,255;  303,635
293,367;  297,380;  296,956;  295,215
293,455;  299,900;  293,185;  294,155
293,542;  286,180;  275,695;  281,445
293,629;  284,540;  279,035;  281,855
293,716;  314,180;  305,646;  311,195
293,803;  292,060;  287,105;  287,695
293,890;  312,520;  310,336;  312,555
293,978;  293,380;  284,105;  290,755
294,065;  296,100;  286,725;  284,345
294,152;  307,360;  302,385;  304,355
294,239;  274,480;  275,646;  274,625
294,326;  295,180;  286,746;  290,635
294,413;  283,900;  278,046;  278,465
294,500;  295,440;  292,586;  295,255
294,587;  291,060;  283,915;  287,195
294,674;  313,760;  305,875;  306,925
294,761;  291,580;  288,896;  287,945
294,848;  293,620;  286,866;  294,115
294,935;  300,820;  290,746;  290,555
295,022;  277,060;  272,396;  274,105
295,109;  265,040;  258,466;  262,665
295,196;  296,960;  291,405;  295,265
295,283;  285,160;  281,176;  278,745
295,370;  312,260;  308,975;  312,155
295,457;  296,640;  289,986;  290,435
295,544;  288,620;  285,105;  287,985
295,631;  297,820;  290,165;  295,805
295,718;  282,020;  272,676;  274,015
295,805;  300,280;  296,225;  296,685
295,892;  308,060;  300,005;  304,445
295,979;  297,860;  291,266;  292,755
296,066;  305,380;  293,996;  296,145
296,153;  308,360;  296,026;  296,355
296,240;  309,220;  299,206;  300,535
296,327;  300,320;  285,206;  285,615
296,413;  320,020;  301,285;  305,075
296,500;  340,100;  302,755;  305,145
296,587;  524,120;  288,616;  286,065
296,674; 1608,160;  294,396;  297,335
296,761;  825,140;  300,095;  298,245
296,848;  307,240;  281,956;  285,815
296,934;  301,500;  290,966;  295,265
297,021;  299,800;  292,565;  292,975
297,108;  286,360;  276,366;  280,895
297,195;  291,280;  291,466;  294,705
297,282;  292,320;  286,535;  286,195
297,368;  314,220;  310,026;  305,975
297,455;  286,240;  279,155;  283,145
297,542;  315,540;  311,375;  313,235
297,629;  308,040;  299,016;  300,205
297,715;  312,480;  308,285;  310,385
297,802;  305,540;  300,466;  303,285
297,889;  316,820;  311,716;  313,025
297,975;  329,960;  322,836;  323,685
298,062;  322,400;  310,505;  312,995
298,149;  281,980;  273,505;  274,905
298,235;  298,920;  291,135;  294,075
298,322;  297,520;  294,806;  292,785
298,409;  319,780;  311,195;  312,715
298,495;  286,860;  285,435;  283,435
298,582;  315,320;  307,516;  308,065
298,669;  296,860;  290,526;  294,245
298,755;  302,420;  299,065;  302,235
298,842;  308,000;  304,755;  309,095
298,928;  304,960;  303,855;  304,595
299,015;  298,620;  294,896;  296,705
299,102;  326,640;  318,986;  320,565
299,188;  323,740;  315,956;  316,045
299,275;  311,080;  309,926;  309,365
299,361;  278,260;  278,875;  281,665
299,448;  315,160;  312,466;  310,885
299,534;  312,880;  312,355;  312,735
299,621;  308,020;  304,655;  303,865
299,707;  303,180;  299,016;  304,675
299,794;  325,720;  319,885;  319,685
299,880;  324,860;  317,076;  318,325
299,967;  300,920;  296,345;  296,295
300,053;  301,580;  295,935;  299,065
300,140;  327,380;  323,086;  328,875
300,226;  315,980;  313,885;  313,595
300,312;  310,180;  307,276;  306,695
300,399;  314,200;  305,505;  308,465
300,485;  302,060;  297,776;  301,725
300,572;  281,860;  281,655;  281,655
300,658;  297,380;  297,216;  294,585
300,744;  312,060;  310,706;  311,315
300,831;  322,080;  313,595;  318,275
300,917;  324,780;  321,676;  320,915
301,004;  313,460;  311,556;  311,015
301,090;  285,960;  277,785;  280,095
301,176;  288,000;  284,255;  288,205
301,263;  316,720;  313,676;  314,925
301,349;  298,080;  289,475;  293,305
301,435;  286,700;  284,276;  285,095
301,521;  317,100;  314,625;  313,245
301,608;  320,960;  314,695;  315,515
301,694;  303,060;  297,896;  300,535
301,780;  306,380;  303,046;  298,285
301,867;  288,360;  280,836;  285,265
301,953;  311,000;  296,595;  301,165
302,039;  386,260;  295,116;  297,515
302,125;  533,640;  298,445;  304,125
302,211;  364,100;  332,926;  334,115
302,298;  353,400;  301,926;  305,295
302,384;  299,940;  281,116;  287,095
302,470;  298,260;  289,505;  291,305
302,556;  308,520;  301,935;  305,645
302,642;  296,820;  293,456;  295,155
302,729;  303,200;  289,306;  293,525
302,815;  321,380;  317,966;  319,775
302,901;  298,700;  296,475;  298,745
302,987;  315,060;  307,716;  308,245
303,073;  304,960;  304,185;  302,795
303,159;  299,800;  296,945;  298,695
303,245;  292,060;  284,336;  290,495
303,331;  288,960;  283,486;  286,455
303,417;  297,920;  294,556;  296,145
303,503;  311,380;  310,046;  312,155
303,590;  295,060;  289,146;  291,705
303,676;  303,740;  299,505;  300,385
303,762;  292,780;  287,185;  287,835
303,848;  316,640;  311,026;  312,055
303,934;  309,940;  304,915;  307,775
304,020;  305,260;  301,796;  304,745
304,106;  313,640;  309,975;  314,015
304,192;  299,720;  291,796;  296,765
304,278;  311,240;  302,896;  304,455
304,364;  328,820;  323,026;  324,755
304,450;  309,340;  301,496;  304,095
304,535;  310,660;  304,005;  304,245
304,621;  305,440;  301,565;  302,205
304,707;  308,480;  306,296;  307,635
304,793;  324,620;  318,625;  318,575
304,879;  311,640;  306,776;  310,585
304,965;  317,560;  312,845;  313,365
305,051;  314,720;  308,616;  311,355
305,137;  322,300;  318,146;  324,235
305,223;  297,020;  291,445;  293,725
305,309;  322,740;  313,496;  317,755
305,394;  315,660;  311,996;  311,465
305,480;  305,960;  299,426;  304,775
305,566;  309,320;  309,355;  310,525
305,652;  318,700;  313,605;  317,885
305,738;  353,160;  349,206;  353,435
305,824;  314,700;  316,016;  315,095
305,909;  326,660;  323,815;  325,155
305,995;  293,580;  289,595;  290,025
306,081;  348,680;  348,345;  350,435
306,167;  311,280;  303,966;  307,875
306,252;  328,520;  324,375;  325,505
306,338;  340,920;  331,366;  335,515
306,424;  307,080;  306,595;  307,415
306,510;  321,080;  316,105;  319,795
306,595;  327,160;  323,685;  322,125
306,681;  320,180;  316,926;  318,895
306,767;  307,860;  305,336;  309,425
306,852;  334,260;  328,255;  331,375
306,938;  329,080;  325,796;  325,905
307,024;  306,560;  302,875;  304,755
307,109;  341,400;  336,065;  338,965
307,195;  318,400;  316,326;  318,385
307,281;  321,420;  318,716;  318,575
307,366;  316,280;  313,345;  310,455
307,452;  321,600;  312,426;  316,335
307,537;  303,900;  296,776;  298,485
307,623;  300,060;  292,105;  296,985
307,709;  310,200;  309,885;  310,795
307,794;  297,180;  288,576;  291,835
307,880;  325,400;  320,236;  319,735
307,965;  316,360;  307,456;  307,525
308,051;  298,040;  297,195;  298,065
308,136;  302,080;  297,165;  296,745
308,222;  307,260;  300,366;  302,045
308,307;  297,420;  295,116;  296,645
308,393;  302,580;  295,535;  300,335
308,478;  319,420;  321,826;  318,975
308,564;  295,160;  295,516;  288,925
308,649;  312,040;  308,496;  308,295
308,735;  301,800;  294,155;  300,535
308,820;  322,240;  320,655;  319,455
308,906;  300,800;  291,625;  300,515
308,991;  343,680;  341,076;  338,375
309,076;  320,340;  319,336;  320,645
309,162;  287,200;  283,945;  283,805
309,247;  308,460;  309,945;  308,415
309,333;  295,780;  291,646;  297,855
309,418;  309,140;  298,665;  301,955
309,503;  307,240;  297,646;  300,235
309,589;  305,580;  303,725;  305,345
309,674;  291,020;  290,945;  289,235
309,759;  307,600;  303,315;  304,195
309,845;  311,580;  311,016;  312,415
309,930;  311,280;  305,966;  307,375
310,015;  281,300;  276,095;  276,835
310,101;  319,680;  315,616;  319,905
310,186;  286,880;  285,426;  288,565
310,271;  300,360;  297,296;  298,295
310,357;  301,700;  297,526;  296,455
310,442;  314,240;  302,445;  303,865
310,527;  303,040;  297,766;  301,125
310,612;  281,440;  278,195;  281,425
310,698;  322,420;  319,725;  321,135
310,783;  307,300;  301,176;  302,685
310,868;  296,620;  294,285;  295,125
310,953;  286,640;  284,165;  285,195
311,038;  315,820;  311,146;  310,075
311,124;  302,040;  294,635;  290,925
311,209;  285,820;  276,736;  277,355
311,294;  316,720;  310,206;  312,575
311,379;  282,720;  276,785;  277,345
311,464;  303,180;  297,405;  297,635
311,549;  291,860;  282,385;  284,505
311,634;  294,900;  290,396;  286,805
311,719;  323,740;  316,016;  315,415
311,805;  297,680;  289,266;  291,605
311,890;  305,560;  295,165;  295,925
311,975;  296,000;  281,526;  286,055
312,060;  309,500;  298,146;  302,435
312,145;  294,920;  277,586;  276,025
312,230;  316,160;  290,815;  296,495
312,315;  334,020;  294,065;  296,045
312,400;  404,180;  296,396;  299,795
312,485; 1546,640;  290,535;  292,475
312,570; 1273,720;  277,125;  279,615
312,655;  347,440;  308,176;  313,325
312,740;  333,000;  301,616;  302,005
312,825;  340,920;  304,105;  307,725
312,910;  357,740;  307,736;  309,235
312,995;  439,120;  296,236;  298,245
313,080; 1923,040;  285,655;  286,805
313,165; 2194,000;  303,565;  305,305
313,250;  371,300;  287,276;  287,825
313,335;  330,140;  307,435;  312,125
313,419;  283,600;  267,466;  268,635
313,504;  328,000;  313,355;  315,225
313,589;  310,580;  295,216;  297,545
313,674;  318,040;  307,206;  310,085
313,759;  290,000;  281,556;  282,625
313,844;  302,920;  292,776;  291,005
313,929;  300,360;  289,945;  291,695
314,014;  322,260;  313,306;  315,005
314,098;  306,900;  299,035;  300,425
314,183;  272,100;  263,505;  263,795
314,268;  306,520;  296,496;  298,955
314,353;  312,300;  302,026;  306,185
314,438;  314,280;  306,905;  311,515
314,522;  310,480;  309,486;  308,535
314,607;  310,460;  307,565;  307,855
314,692;  309,300;  301,885;  303,855
314,777;  296,160;  291,766;  292,395
314,861;  284,420;  277,285;  276,385
314,946;  321,020;  315,116;  317,565
315,031;  295,920;  291,875;  294,115
315,115;  310,680;  306,206;  308,065
315,200;  318,760;  312,146;  313,065
315,285;  296,820;  289,486;  289,595
315,369;  287,480;  287,945;  288,545
315,454;  314,540;  311,905;  311,025
315,539;  312,300;  310,246;  307,795
315,623;  314,020;  309,426;  313,225
315,708;  331,200;  335,605;  336,825
315,793;  303,820;  297,986;  298,155
315,877;  308,440;  302,975;  305,445
315,962;  293,880;  289,105;  291,925
316,046;  321,480;  317,065;  319,225
316,131;  340,120;  334,516;  337,215
316,216;  310,660;  310,315;  310,785
316,300;  302,000;  303,345;  302,165
316,385;  329,740;  325,315;  324,305
316,469;  333,300;  330,625;  331,955
316,554;  303,040;  296,005;  298,425
316,638;  304,420;  296,725;  301,565
316,723;  301,580;  292,546;  293,795
316,807;  301,540;  299,595;  299,275
316,892;  294,220;  288,975;  289,925
316,976;  320,560;  314,405;  316,505
317,061;  306,560;  306,035;  305,965
317,145;  327,480;  327,655;  325,965
317,230;  322,900;  321,505;  319,905
317,314;  278,800;  275,565;  275,085
317,398;  310,580;  310,706;  312,245
317,483;  296,600;  290,026;  291,085
317,567;  316,720;  315,326;  317,865
317,652;  286,820;  283,526;  286,625
317,736;  311,640;  308,776;  309,285
317,820;  338,500;  329,005;  334,665
317,905;  306,440;  306,706;  307,035
317,989;  298,860;  298,285;  300,875
318,073;  298,960;  298,076;  297,705
318,158;  290,220;  284,966;  285,565
318,242;  302,320;  296,845;  299,095
318,326;  288,980;  283,155;  284,015
318,411;  294,060;  295,125;  296,565
318,495;  291,780;  285,776;  287,165
318,579;  289,740;  288,746;  289,305
318,664;  281,400;  280,315;  284,255
318,748;  303,140;  305,996;  310,145
318,832;  291,160;  290,806;  289,475
318,916;  274,160;  274,785;  277,335
319,001;  299,720;  299,945;  301,485
319,085;  295,160;  292,885;  290,905
319,169;  295,980;  293,396;  294,485
319,253;  292,960;  287,216;  285,525
319,337;  303,640;  306,246;  304,885
319,422;  318,620;  316,125;  313,225
319,506;  284,180;  283,326;  285,905
319,590;  310,340;  303,915;  305,525
319,674;  294,600;  291,926;  295,405
319,758;  305,760;  295,165;  300,215
319,842;  313,400;  306,135;  309,155
319,926;  297,680;  294,815;  295,205
320,010;  270,280;  267,046;  269,575
320,095;  288,760;  280,926;  284,685
320,179;  281,200;  279,125;  281,175
320,263;  287,580;  277,385;  285,805
320,347;  273,520;  271,296;  279,075
320,431;  280,700;  273,435;  274,355
320,515;  302,240;  296,375;  299,935
320,599;  276,900;  269,866;  273,825
320,683;  305,320;  305,706;  305,495
320,767;  268,820;  266,236;  266,205
320,851;  286,240;  281,855;  287,785
320,935;  318,300;  312,565;  318,275
321,019;  294,560;  292,975;  290,075
321,103;  277,660;  278,135;  280,585
321,187;  276,220;  273,165;  273,265
321,271;  293,340;  294,616;  296,825
321,355;  288,800;  281,595;  283,805
321,439;  302,120;  301,216;  301,725
321,523;  283,080;  282,266;  284,705
321,606;  291,920;  287,426;  288,215
321,690;  289,560;  287,026;  288,215
321,774;  293,060;  288,336;  292,205
321,858;  289,420;  292,966;  291,945
321,942;  299,340;  294,276;  298,975
322,026;  287,180;  283,315;  282,695
322,110;  294,640;  293,146;  295,755
322,194;  297,500;  295,355;  301,055
322,277;  287,760;  286,135;  287,285
322,361;  278,800;  278,595;  281,215
322,445;  289,200;  289,315;  291,095
322,529;  295,480;  297,716;  299,645
322,613;  297,120;  297,206;  297,795
322,696;  272,600;  267,695;  272,865
322,780;  285,240;  283,026;  283,485
322,864;  279,840;  272,625;  279,835
322,948;  296,400;  292,326;  295,965
323,031;  280,900;  281,565;  282,215
323,115;  285,440;  284,586;  285,215
323,199;  300,320;  296,565;  299,105
323,282;  313,560;  307,496;  310,065
323,366;  291,840;  287,296;  293,625
323,450;  279,620;  273,496;  275,835
323,533;  320,940;  314,576;  317,415
323,617;  271,080;  268,695;  271,585
323,701;  286,320;  281,105;  283,575
323,784;  296,160;  292,576;  294,205
323,868;  305,860;  297,866;  299,875
323,952;  297,080;  290,966;  294,175
324,035;  306,020;  305,926;  310,825
324,119;  301,840;  295,466;  298,455
324,202;  293,260;  286,836;  292,745
324,286;  289,200;  284,986;  286,605
324,370;  292,260;  293,105;  296,765
324,453;  301,420;  299,616;  301,745
324,537;  295,260;  294,426;  298,035
324,620;  293,940;  286,635;  291,765
324,704;  274,620;  270,445;  276,525
324,787;  300,180;  294,875;  296,265
324,871;  309,840;  310,986;  315,255
324,954;  315,100;  312,246;  315,985
325,038;  311,460;  306,466;  306,985
325,121;  312,600;  308,695;  312,075
325,205;  290,620;  290,396;  293,295
325,288;  286,120;  279,556;  285,675
325,371;  301,320;  298,945;  302,395
325,455;  314,940;  314,026;  312,045
325,538;  284,840;  281,516;  287,185
325,622;  324,520;  320,806;  321,295
325,705;  300,080;  297,716;  298,675
325,788;  318,060;  313,625;  316,645
325,872;  302,360;  300,796;  300,745
325,955;  325,800;  319,845;  325,065
326,039;  306,440;  309,576;  312,795
326,122;  314,560;  310,746;  311,665
326,205;  317,160;  311,806;  310,235
326,289;  320,980;  313,986;  319,245
326,372;  302,280;  294,746;  299,195
326,455;  323,780;  323,095;  324,405
326,538;  317,580;  312,336;  316,545
326,622;  322,060;  318,396;  320,075
326,705;  286,880;  287,315;  287,875
326,788;  322,020;  321,266;  322,405
326,871;  323,020;  315,576;  317,965
326,955;  316,940;  313,836;  315,225
327,038;  310,980;  310,116;  310,855
327,121;  307,880;  301,516;  307,855
327,204;  318,180;  313,216;  314,045
327,288;  331,980;  328,956;  332,375
327,371;  298,540;  288,185;  296,955
327,454;  318,020;  313,065;  313,845
327,537;  302,920;  299,815;  302,435
327,620;  331,560;  322,935;  330,145
327,703;  313,020;  309,076;  310,615
327,786;  313,860;  311,076;  312,115
327,870;  328,400;  323,155;  328,715
327,953;  306,100;  301,155;  305,785
328,036;  296,580;  293,105;  299,035
328,119;  324,440;  317,576;  321,135
328,202;  301,860;  301,885;  305,875
328,285;  329,920;  326,776;  329,015
328,368;  322,780;  320,935;  322,625
328,451;  322,800;  320,635;  322,565
328,534;  300,080;  301,266;  307,075
328,617;  310,980;  305,676;  311,785
328,700;  328,100;  326,505;  326,695
328,783;  320,720;  320,785;  322,875
328,866;  319,300;  314,095;  319,935
328,949;  323,000;  319,966;  326,555
329,032;  298,940;  297,826;  300,605
329,115;  298,100;  290,905;  295,945
329,198;  284,200;  282,956;  283,785
329,281;  301,300;  299,336;  298,465
329,364;  318,560;  316,246;  319,245
329,447;  313,880;  307,176;  309,255
329,530;  333,300;  328,155;  328,175
329,613;  307,200;  300,565;  306,725
329,696;  332,460;  326,806;  330,715
329,778;  316,540;  311,306;  316,915
329,861;  298,900;  295,236;  299,565
329,944;  332,380;  321,685;  327,225
330,027;  314,740;  311,576;  315,115
330,110;  314,000;  307,595;  311,705
330,193;  297,840;  295,306;  299,955
330,275;  318,280;  312,296;  315,835
330,358;  298,980;  291,776;  296,185
330,441;  326,020;  323,586;  325,365
330,524;  311,280;  305,216;  311,095
330,607;  300,740;  304,345;  306,905
330,689;  315,140;  313,105;  314,535
330,772;  319,080;  311,105;  312,425
330,855;  331,880;  325,065;  327,855
330,938;  321,100;  312,315;  321,275
331,020;  323,780;  317,176;  320,535
331,103;  293,300;  293,035;  294,505
331,186;  306,920;  305,146;  307,085
331,268;  299,260;  293,565;  298,695
331,351;  314,140;  313,026;  316,455
331,434;  315,940;  308,385;  312,645
331,516;  316,440;  319,076;  321,185
331,599;  307,140;  297,095;  301,425
331,682;  314,080;  310,736;  310,985
331,764;  298,820;  293,326;  297,915
331,847;  323,900;  313,716;  315,705
331,929;  292,320;  290,026;  293,225
332,012;  314,640;  309,625;  310,055
332,095;  327,800;  323,306;  326,625
332,177;  327,200;  320,806;  324,285
332,260;  329,680;  327,526;  328,035
332,342;  314,620;  309,246;  314,445
332,425;  307,460;  312,516;  311,505
332,507;  313,300;  308,526;  311,575
332,590;  288,260;  287,595;  291,655
332,672;  299,960;  294,885;  298,455
332,755;  312,860;  306,855;  311,605
332,837;  313,760;  310,716;  312,255
332,920;  315,760;  309,076;  315,155
333,002;  333,880;  325,676;  328,895
333,085;  315,180;  313,375;  315,165
333,167;  300,940;  296,875;  298,575
333,249;  299,280;  294,526;  298,145
333,332;  295,680;  293,296;  297,715
333,414;  304,500;  300,035;  304,875
333,497;  307,920;  300,255;  302,305
333,579;  303,440;  300,996;  306,375
333,661;  321,420;  319,706;  320,745
333,744;  300,540;  293,695;  297,125
333,826;  307,360;  305,766;  306,065
333,908;  319,640;  313,896;  316,665
333,991;  307,340;  291,266;  291,545
334,073;  461,620;  312,706;  318,525
334,155;  356,920;  304,086;  305,525
334,238;  325,080;  318,576;  326,145
334,320;  303,080;  297,046;  300,585
334,402;  310,420;  302,996;  304,895
334,485;  307,600;  303,655;  304,015
334,567;  303,260;  299,776;  301,975
334,649;  284,360;  278,426;  282,925
334,731;  319,900;  313,456;  317,305
334,813;  323,440;  315,605;  320,355
334,896;  290,480;  290,185;  294,595
334,978;  307,720;  309,165;  302,585
335,060;  309,140;  304,255;  304,235
335,142;  304,440;  301,665;  302,275
335,224;  313,100;  309,766;  311,745
335,307;  302,820;  297,456;  298,965
335,389;  319,540;  310,385;  317,305
335,471;  306,420;  299,896;  306,115
335,553;  324,200;  319,866;  318,905
335,635;  313,580;  312,836;  315,315
335,717;  303,600;  298,195;  300,145
335,799;  323,700;  322,695;  323,585
335,881;  283,000;  278,385;  282,845
335,963;  295,180;  291,796;  293,005
336,045;  299,360;  295,516;  301,085
336,128;  277,080;  270,945;  275,225
336,210;  294,720;  288,996;  292,295
336,292;  297,580;  297,845;  300,615
336,374;  307,080;  300,956;  306,155
336,456;  290,120;  285,616;  288,495
336,538;  303,880;  303,165;  304,435
336,620;  310,920;  310,576;  312,205
336,702;  295,140;  294,766;  294,235
336,783;  305,280;  302,556;  304,225
336,865;  310,640;  304,176;  305,725
336,947;  312,220;  308,486;  311,205
337,029;  285,560;  281,826;  282,945
337,111;  319,140;  316,266;  316,735
337,193;  286,080;  280,986;  284,795
337,275;  311,180;  310,815;  314,535
337,357;  325,280;  318,815;  324,805
337,439;  303,860;  305,255;  310,655
337,521;  276,960;  277,225;  280,915
337,602;  299,560;  298,435;  301,085
337,684;  315,720;  315,635;  317,455
337,766;  313,920;  312,266;  312,305
337,848;  298,640;  295,086;  301,025
337,930;  307,340;  303,165;  306,525
338,012;  304,120;  298,586;  299,555
338,093;  316,440;  312,396;  315,895
338,175;  321,340;  318,195;  321,575
338,257;  311,820;  306,945;  309,225
338,339;  302,320;  294,086;  300,165
338,420;  310,780;  310,986;  310,895
338,502;  300,520;  298,836;  304,265
338,584;  288,180;  286,736;  289,235
338,666;  303,460;  303,426;  302,365
338,747;  338,100;  330,806;  334,875
338,829;  314,380;  309,176;  309,265
338,911;  295,640;  296,236;  298,915
338,992;  299,320;  295,746;  294,435
339,074;  309,600;  306,155;  307,855
339,156;  301,240;  298,176;  303,395
339,237;  328,040;  325,035;  327,765
339,319;  295,400;  294,935;  300,045
339,400;  313,580;  309,065;  311,225
339,482;  283,080;  278,165;  280,605
339,564;  317,860;  317,026;  316,575
339,645;  305,940;  304,595;  308,105
339,727;  289,920;  290,216;  294,375
339,808;  324,980;  317,685;  322,555
339,890;  307,500;  299,956;  302,415
339,971;  316,340;  307,016;  315,055
340,053;  340,000;  336,746;  335,255
340,134;  298,180;  296,535;  298,415
340,216;  319,180;  315,556;  319,645
340,297;  300,640;  298,396;  301,525
340,379;  317,440;  314,736;  316,975
340,460;  306,740;  306,685;  306,615
340,542;  296,560;  294,535;  297,775
340,623;  314,260;  307,926;  312,435
340,705;  297,960;  297,516;  295,795
340,786;  291,760;  289,685;  291,925
340,868;  308,800;  308,826;  304,055
340,949;  288,260;  285,605;  286,145
341,030;  329,500;  321,435;  328,715
341,112;  280,540;  280,565;  284,075
341,193;  278,200;  270,135;  273,595
341,274;  322,100;  322,176;  320,965
341,356;  321,080;  320,716;  321,795
341,437;  299,420;  301,635;  300,825
341,518;  312,660;  307,176;  314,795
341,600;  323,380;  320,866;  322,465
341,681;  333,180;  328,866;  332,375
341,762;  326,520;  325,206;  323,705
341,844;  290,760;  287,146;  292,185
341,925;  309,820;  308,225;  311,205
342,006;  324,980;  320,426;  323,055
342,087;  294,140;  288,095;  292,095
342,169;  308,560;  307,026;  309,845
342,250;  289,540;  286,935;  285,935
342,331;  300,980;  298,706;  299,075
342,412;  313,280;  307,655;  310,045
342,493;  291,040;  289,415;  293,325
342,575;  332,460;  327,095;  327,355
342,656;  319,880;  318,466;  318,265
342,737;  334,880;  329,836;  330,295
342,818;  311,120;  307,996;  309,015
342,899;  320,480;  314,505;  317,165
342,980;  311,240;  306,695;  310,155
343,061;  305,940;  303,065;  304,715
343,143;  321,080;  319,535;  319,565
343,224;  311,320;  306,706;  305,915
343,305;  303,180;  299,625;  303,115
343,386;  304,360;  297,996;  300,475
343,467;  308,460;  303,155;  305,535
343,548;  307,520;  304,176;  305,935
343,629;  315,800;  316,405;  317,625
343,710;  326,780;  322,766;  321,015
343,791;  328,800;  325,065;  327,935
343,872;  299,560;  298,975;  297,795
343,953;  317,600;  314,826;  316,625
344,034;  321,700;  319,475;  324,485
344,115;  310,500;  304,255;  303,425
344,196;  304,380;  298,935;  302,165
344,277;  295,800;  293,306;  294,615
344,358;  308,220;  304,755;  307,345
344,439;  299,940;  293,975;  294,205
344,520;  307,820;  298,546;  300,975
344,601;  317,240;  314,646;  315,525
344,681;  307,500;  302,426;  303,825
344,762;  291,220;  283,466;  287,625
344,843;  277,680;  275,996;  281,125
344,924;  307,380;  303,635;  306,085
345,005;  293,660;  287,176;  288,725
345,086;  313,220;  307,665;  309,725
345,167;  297,300;  293,986;  295,575
345,247;  330,720;  323,896;  328,905
345,328;  319,360;  315,315;  317,705
345,409;  313,460;  307,056;  309,355
345,490;  309,980;  308,415;  314,245
345,571;  310,500;  304,875;  312,045
345,651;  282,660;  279,456;  279,055
345,732;  305,280;  307,285;  312,275
345,813;  316,600;  311,836;  317,355
345,894;  290,320;  285,785;  287,595
345,974;  310,560;  309,556;  311,845
346,055;  295,920;  296,435;  295,735
346,136;  311,100;  304,405;  306,245
346,216;  326,380;  324,945;  328,565
346,297;  304,840;  306,565;  304,225
346,378;  296,400;  291,996;  294,005
346,458;  310,300;  307,375;  313,405
346,539;  310,060;  302,306;  305,975
346,620;  311,820;  305,815;  306,685
346,700;  288,700;  288,755;  289,765
346,781;  287,700;  284,556;  286,765
346,861;  306,040;  304,336;  307,325
346,942;  309,140;  304,336;  302,715
347,023;  319,000;  317,885;  316,005
347,103;  302,920;  297,396;  302,825
347,184;  300,180;  294,475;  296,785
347,264;  297,160;  294,565;  296,805
347,345;  292,960;  290,526;  295,525
347,425;  286,980;  285,125;  290,565
347,506;  284,640;  283,595;  283,195
347,586;  289,640;  289,725;  292,435
347,667;  311,920;  307,616;  304,445
347,747;  308,540;  311,116;  310,775
347,828;  301,060;  296,486;  296,465
347,908;  306,800;  303,306;  307,175
347,988;  305,320;  298,655;  306,125
348,069;  310,540;  311,056;  311,395
348,149;  310,440;  303,956;  309,065
348,230;  310,660;  309,956;  310,945
348,310;  284,800;  284,185;  285,715
348,390;  290,560;  288,526;  288,625
348,471;  306,100;  303,665;  305,125
348,551;  288,980;  290,695;  293,935
348,632;  293,360;  289,505;  294,065
348,712;  291,820;  292,706;  295,115
348,792;  330,800;  329,836;  329,985
348,873;  281,540;  281,905;  283,045
348,953;  293,060;  289,845;  290,395
349,033;  303,540;  297,466;  299,465
349,113;  288,300;  286,076;  286,905
349,194;  303,100;  301,595;  304,825
349,274;  307,140;  304,796;  307,395
349,354;  305,140;  303,046;  308,435
349,434;  302,000;  300,116;  301,925
349,515;  323,800;  316,486;  322,185
349,595;  301,080;  302,206;  302,035
349,675;  309,020;  305,635;  308,015
349,755;  302,160;  296,746;  297,615
349,835;  307,260;  301,195;  307,695
349,916;  301,340;  298,435;  303,915
349,996;  290,120;  291,105;  291,745
350,076;  317,200;  312,375;  317,645
350,156;  285,540;  284,836;  287,665
350,236;  317,140;  314,116;  311,925
350,316;  292,640;  292,975;  295,765
350,396;  315,140;  305,646;  310,065
350,476;  303,620;  301,826;  304,275
350,556;  300,000;  293,966;  299,935
350,637;  323,840;  321,005;  321,825
350,717;  291,540;  288,445;  291,825
350,797;  306,640;  302,616;  305,905
350,877;  296,740;  289,875;  294,705
350,957;  301,220;  297,635;  300,095
351,037;  306,780;  298,556;  303,455
351,117;  299,260;  296,276;  296,555
351,197;  305,440;  303,366;  306,305
351,277;  302,800;  300,556;  301,575
351,357;  316,600;  308,806;  314,445
351,437;  309,440;  306,105;  307,755
351,516;  316,740;  317,986;  318,355
351,596;  297,160;  292,896;  296,025
351,676;  290,660;  290,405;  294,265
351,756;  326,260;  323,426;  326,135
351,836;  315,320;  313,866;  317,935
351,916;  301,660;  297,905;  298,975
351,996;  303,320;  303,996;  305,265
352,076;  306,020;  303,486;  303,085
352,156;  319,620;  319,556;  320,405
352,235;  302,140;  301,255;  300,955
352,315;  315,340;  312,456;  314,415
352,395;  312,600;  308,206;  309,425
352,475;  317,940;  315,405;  320,955
352,555;  334,700;  330,236;  330,635
352,634;  325,400;  321,956;  326,705
352,714;  303,380;  302,595;  304,055
352,794;  358,600;  354,466;  358,075
352,874;  318,700;  314,685;  317,555
352,953;  339,520;  337,676;  339,095
353,033;  327,520;  319,306;  320,925
353,113;  338,560;  332,135;  336,575
353,193;  327,580;  328,046;  329,935
353,272;  334,200;  333,135;  334,365
353,352;  311,260;  307,035;  311,285
353,432;  350,160;  343,005;  347,495
353,511;  327,300;  326,185;  330,665
353,591;  361,380;  361,616;  362,555
353,671;  333,420;  331,926;  333,015
353,750;  331,680;  332,296;  331,275
353,830;  321,360;  313,646;  317,015
353,909;  345,700;  339,836;  343,655
353,989;  318,200;  317,385;  320,255
354,069;  319,300;  319,456;  319,155
354,148;  339,200;  335,035;  339,585
354,228;  313,980;  315,695;  316,905
354,307;  334,740;  329,405;  332,345
354,387;  325,300;  322,095;  322,965
354,466;  317,460;  311,635;  316,045
354,546;  337,280;  335,135;  337,645
354,625;  314,840;  319,815;  320,355
354,705;  327,200;  324,246;  326,865
354,784;  315,620;  316,445;  318,195
354,864;  319,920;  316,635;  317,385
354,943;  333,960;  333,695;  339,105
355,023;  308,140;  310,996;  312,285
355,102;  366,120;  362,866;  363,435
355,181;  319,160;  315,966;  318,045
355,261;  340,800;  338,056;  342,165
355,340;  302,980;  303,845;  307,115
355,420;  344,600;  340,105;  342,305
355,499;  325,360;  322,975;  325,635
355,578;  315,840;  315,276;  316,885
355,658;  335,260;  332,875;  333,745
355,737;  323,580;  317,576;  319,005
355,816;  325,440;  323,276;  324,605
355,896;  323,200;  316,026;  321,355
355,975;  311,200;  307,355;  310,055
356,054;  314,500;  311,935;  312,455
356,133;  296,600;  290,565;  293,305
356,213;  325,620;  324,845;  324,825
356,292;  308,520;  304,016;  309,325
356,371;  315,520;  314,146;  314,035
356,451;  325,840;  324,755;  327,685
356,530;  348,000;  349,496;  350,795
356,609;  315,780;  311,146;  315,535
356,688;  321,940;  316,475;  316,165
356,767;  309,380;  304,695;  309,855
356,846;  327,500;  327,035;  327,235
356,926;  345,220;  340,016;  343,965
357,005;  316,480;  318,345;  318,565
357,084;  308,480;  304,466;  308,385
357,163;  319,020;  317,706;  317,185
357,242;  321,340;  320,146;  319,515
357,321;  318,440;  314,496;  316,575
357,400;  320,600;  321,236;  318,865
357,479;  319,040;  317,725;  320,795
357,559;  324,900;  321,405;  325,705
357,638;  298,480;  300,616;  298,815
357,717;  312,960;  313,746;  311,555
357,796;  335,600;  329,266;  330,875
357,875;  315,100;  314,466;  313,455
357,954;  313,200;  310,155;  313,855
358,033;  318,440;  323,405;  320,935
358,112;  333,860;  329,966;  328,315
358,191;  319,040;  315,276;  318,965
358,270;  299,260;  295,505;  297,695
358,349;  324,400;  321,625;  323,725
358,428;  328,040;  322,445;  326,125
358,507;  327,000;  321,366;  325,105
358,585;  323,540;  320,355;  325,525
358,664;  336,340;  332,266;  334,505
358,743;  327,160;  323,776;  326,515
358,822;  336,520;  334,475;  338,195
358,901;  309,860;  309,176;  309,505
358,980;  312,960;  310,885;  313,735
359,059;  331,220;  328,616;  332,255
359,138;  333,120;  329,415;  328,565
359,216;  327,240;  322,225;  327,485
359,295;  309,520;  309,475;  309,515
359,374;  331,540;  330,026;  333,455
359,453;  317,860;  316,345;  320,885
359,532;  304,640;  304,526;  308,455
359,610;  322,280;  319,556;  323,285
359,689;  336,020;  331,116;  333,025
359,768;  314,340;  313,706;  315,305
359,847;  305,980;  302,065;  305,385
359,925;  307,380;  304,105;  307,215
360,004;  307,520;  299,565;  302,585
360,083;  315,800;  320,165;  321,795
360,161;  308,380;  305,676;  309,885
360,240;  287,560;  288,725;  291,455
360,319;  315,640;  318,276;  317,225
360,397;  331,520;  324,986;  331,265
360,476;  323,780;  318,296;  324,355
360,555;  352,040;  345,565;  346,835
360,633;  306,820;  304,456;  304,945
360,712;  315,620;  309,056;  311,825
360,790;  336,720;  330,065;  331,185
360,869;  313,440;  310,266;  313,085
360,948;  322,820;  322,466;  322,235
361,026;  301,960;  300,065;  301,245
361,105;  311,400;  306,116;  309,875
361,183;  324,800;  324,725;  326,345
361,262;  305,940;  302,375;  307,465
361,340;  310,640;  305,815;  306,875
361,419;  290,620;  289,896;  290,845
361,497;  345,760;  340,926;  346,955
361,576;  324,840;  317,736;  323,245
361,654;  348,340;  342,736;  343,615
361,733;  296,520;  297,366;  297,305
361,811;  335,000;  329,065;  331,875
361,890;  293,500;  292,595;  293,595
361,968;  317,980;  313,706;  316,715
362,046;  336,540;  335,296;  335,795
362,125;  341,760;  337,435;  340,865
362,203;  324,280;  314,635;  316,745
362,282;  338,860;  328,676;  334,675
362,360;  324,000;  318,315;  323,125
362,438;  323,660;  313,565;  317,495
362,517;  360,780;  357,725;  357,035
362,595;  345,000;  340,956;  345,025
362,673;  341,340;  334,576;  338,035
362,752;  332,700;  326,366;  329,445
362,830;  339,420;  343,155;  338,795
362,908;  332,200;  322,885;  326,315
362,986;  338,320;  333,595;  334,645
363,065;  333,780;  326,405;  330,985
363,143;  362,240;  359,875;  363,525
363,221;  322,400;  313,755;  319,675
363,299;  317,300;  315,845;  315,595
363,378;  329,580;  327,546;  328,495
363,456;  312,100;  304,326;  305,295
363,534;  333,660;  323,996;  327,895
363,612;  337,500;  327,546;  330,285
363,690;  343,720;  337,885;  341,915
363,769;  356,080;  349,336;  354,965
363,847;  337,800;  332,326;  333,935
363,925;  313,400;  303,095;  306,775
364,003;  356,220;  350,866;  351,845
364,081;  340,660;  336,345;  339,765
364,159;  338,680;  331,836;  334,695
364,237;  351,100;  341,276;  343,025
364,315;  331,300;  318,866;  320,765
364,393;  365,100;  350,935;  355,465
364,471;  344,740;  328,185;  329,975
364,549;  351,840;  333,026;  334,495
364,627;  360,240;  323,095;  327,065
364,705;  367,040;  311,135;  310,945
364,783;  432,020;  323,496;  332,235
364,861;  979,300;  331,396;  334,915
364,939; 3537,380;  314,086;  319,855
365,017;  802,780;  306,046;  310,735
365,095;  375,360;  322,116;  324,495
365,173;  379,440;  345,556;  349,605
365,251;  386,540;  341,535;  344,665
365,329;  525,220;  346,466;  345,195
365,407; 1152,080;  318,345;  321,385
365,485;  466,480;  344,826;  348,395
365,563;  362,120;  344,306;  346,815
365,641;  343,180;  331,896;  331,005
365,719;  348,000;  337,095;  336,965
365,796;  343,280;  334,926;  336,075
365,874;  358,780;  347,426;  349,165
365,952;  325,780;  309,516;  312,925
366,030;  350,420;  334,866;  333,525
366,108;  364,000;  326,345;  328,575
366,185;  613,260;  338,396;  343,695
366,263;  873,760;  334,646;  340,035
366,341;  382,880;  334,125;  339,925
366,419;  344,320;  331,535;  331,355
366,496;  350,120;  342,655;  345,225
366,574;  336,680;  325,826;  329,315
366,652;  356,440;  345,296;  349,635
366,730;  375,100;  365,475;  368,065
366,807;  338,920;  330,845;  334,945
366,885;  330,720;  321,135;  327,175
366,963;  337,180;  329,016;  331,635
367,040;  357,000;  345,815;  352,465
367,118;  330,900;  321,875;  325,205
367,196;  346,320;  341,896;  344,715
367,273;  336,360;  335,845;  338,245
367,351;  333,720;  328,155;  331,125
367,428;  366,100;  355,016;  356,915
367,506;  338,940;  329,225;  333,905
367,584;  366,340;  360,216;  363,085
367,661;  347,520;  341,785;  346,585
367,739;  336,680;  328,466;  334,835
367,816;  327,800;  320,345;  324,175
367,894;  349,180;  339,146;  345,755
367,971;  336,160;  329,885;  333,335
368,049;  356,980;  349,586;  353,435
368,126;  320,720;  314,625;  317,265
368,204;  359,420;  351,836;  352,775
368,281;  354,620;  353,225;  355,775
368,359;  353,660;  348,806;  354,965
368,436;  347,640;  342,385;  348,785
368,514;  356,900;  349,646;  351,035
368,591;  348,100;  343,486;  348,405
368,668;  351,260;  347,486;  351,455
368,746;  358,420;  358,556;  362,125
368,823;  341,720;  342,405;  345,515
368,901;  346,520;  339,046;  341,025
368,978;  365,220;  354,975;  361,925
369,055;  350,240;  343,826;  347,145
369,133;  370,480;  367,046;  368,725
369,210;  342,720;  339,206;  342,185
369,287;  370,360;  367,986;  371,205
369,365;  376,040;  368,896;  369,715
369,442;  349,640;  346,826;  351,135
369,519;  309,200;  306,396;  310,475
369,596;  374,720;  369,005;  372,695
369,674;  340,220;  336,526;  336,705
369,751;  369,640;  368,005;  369,405
369,828;  351,200;  350,366;  351,255
369,905;  360,520;  354,796;  358,705
369,983;  333,420;  329,826;  336,485
370,060;  337,400;  335,185;  336,165
370,137;  376,160;  371,595;  373,975
370,214;  343,260;  340,246;  340,845
370,291;  354,100;  347,845;  351,965
370,368;  354,480;  345,426;  349,675
370,446;  337,020;  335,716;  337,375
370,523;  336,280;  331,586;  338,615
370,600;  358,000;  350,706;  356,355
370,677;  350,900;  345,826;  349,525
370,754;  346,820;  341,706;  344,655
370,831;  348,740;  344,885;  347,665
370,908;  372,360;  368,556;  369,945
370,985;  328,100;  326,206;  327,885
371,062;  351,100;  346,635;  347,955
371,139;  360,180;  362,125;  364,815
371,216;  358,900;  357,496;  359,475
371,293;  351,740;  350,576;  350,305
371,370;  333,400;  328,806;  332,395
371,447;  358,300;  354,736;  355,835
371,524;  378,620;  374,685;  378,505
371,601;  373,720;  371,556;  374,285
371,678;  375,240;  374,306;  375,345
371,755;  351,140;  348,526;  348,275
371,832;  374,900;  374,526;  377,175
371,909;  345,100;  342,065;  344,605
371,986;  381,760;  376,505;  379,065
372,063;  350,620;  346,195;  348,745
372,140;  361,060;  354,056;  357,495
372,216;  365,960;  360,225;  360,935
372,293;  346,340;  341,945;  344,805
372,370;  375,460;  370,236;  372,635
372,447;  362,240;  361,646;  361,385
372,524;  350,640;  349,725;  352,115
372,601;  359,680;  353,236;  356,005
372,677;  344,980;  339,586;  339,035
372,754;  350,180;  347,516;  350,955
372,831;  359,480;  354,716;  356,955
372,908;  368,540;  368,496;  364,795
372,984;  358,180;  349,246;  356,035
373,061;  341,600;  342,046;  342,845
373,138;  357,860;  349,986;  354,465
373,215;  349,300;  345,155;  346,585
373,291;  347,580;  347,556;  353,415
373,368;  358,400;  353,516;  357,375
373,445;  352,580;  348,285;  348,395
373,521;  354,400;  349,216;  353,935
373,598;  345,680;  341,766;  343,845
373,675;  332,600;  332,646;  334,115
373,751;  351,420;  345,375;  354,195
373,828;  345,700;  341,076;  346,375
373,904;  391,740;  387,225;  391,935
373,981;  334,220;  332,516;  333,585
374,057;  357,860;  353,306;  355,945
374,134;  331,620;  331,706;  334,435
374,211;  350,120;  348,826;  351,835
374,287;  339,880;  338,565;  339,035
374,364;  368,280;  362,426;  365,335
374,440;  321,520;  319,035;  321,205
374,517;  367,580;  361,625;  366,995
374,593;  326,700;  326,896;  326,865
374,670;  342,100;  340,095;  342,905
374,746;  350,020;  346,915;  349,135
374,823;  372,220;  369,255;  368,775
374,899;  368,460;  366,836;  366,475
374,975;  341,240;  336,035;  341,495
375,052;  323,160;  319,776;  326,175
375,128;  329,980;  325,956;  331,675
375,205;  356,800;  353,665;  355,605
375,281;  338,220;  337,296;  336,395
375,357;  366,400;  361,026;  364,245
375,434;  332,960;  331,986;  338,045
375,510;  355,640;  347,755;  353,175
375,586;  351,680;  347,486;  349,845
375,663;  327,580;  321,926;  323,515
375,739;  363,180;  355,716;  358,675
375,815;  345,060;  346,366;  346,765
375,892;  348,320;  344,516;  348,555
375,968;  339,520;  331,605;  336,855
376,044;  343,880;  335,866;  339,405
376,120;  336,900;  332,535;  339,615
376,197;  351,200;  348,466;  352,185
376,273;  342,560;  340,516;  341,095
376,349;  383,040;  378,366;  379,125
376,425;  366,940;  362,935;  364,425
376,501;  350,540;  344,225;  347,555
376,578;  364,300;  362,885;  363,255
376,654;  384,040;  383,866;  382,945
376,730;  365,920;  360,266;  364,005
376,806;  380,140;  375,185;  376,845
376,882;  374,980;  377,176;  378,355
376,958;  377,840;  376,706;  373,325
377,034;  321,480;  319,695;  317,895
377,111;  370,620;  368,826;  369,285
377,187;  396,000;  390,845;  391,825
377,263;  385,500;  383,885;  384,725
377,339;  349,920;  341,445;  346,375
377,415;  368,960;  366,366;  365,685
377,491;  351,040;  342,885;  347,505
377,567;  364,400;  359,755;  360,685
377,643;  386,720;  380,076;  378,785
377,719;  367,760;  363,706;  367,845
377,795;  350,840;  345,725;  349,165
377,871;  372,940;  367,866;  370,355
377,947;  351,940;  348,236;  351,215
378,023;  350,800;  345,855;  349,075
378,099;  354,680;  349,035;  350,465
378,174;  375,480;  374,176;  374,825
378,250;  364,280;  363,105;  366,955
378,326;  369,520;  366,255;  370,045
378,402;  366,400;  357,685;  360,315
378,478;  368,140;  361,605;  365,295
378,554;  377,480;  370,396;  375,075
378,630;  363,540;  365,225;  365,285
378,706;  357,080;  358,076;  357,335
378,781;  393,020;  390,875;  394,875
378,857;  368,420;  363,185;  366,505
378,933;  367,080;  360,315;  365,855
379,009;  354,800;  351,426;  351,035
379,085;  397,060;  393,826;  391,725
379,160;  382,480;  377,246;  378,485
379,236;  377,060;  374,195;  376,655
379,312;  363,980;  359,915;  361,725
379,387;  358,620;  354,486;  355,105
379,463;  365,620;  359,836;  363,685
379,539;  375,640;  370,475;  373,395
379,615;  362,280;  359,056;  358,495
379,690;  397,100;  395,035;  398,755
379,766;  382,080;  373,276;  379,335
379,842;  392,400;  391,105;  391,375
379,917;  387,420;  380,935;  388,225
379,993;  374,980;  368,366;  373,385
380,068;  364,940;  359,236;  361,755
380,144;  385,360;  381,086;  383,405
380,220;  392,180;  382,086;  386,535
380,295;  357,360;  353,005;  355,035
380,371;  356,840;  359,935;  361,545
380,446;  379,720;  377,165;  381,125
380,522;  353,620;  348,766;  349,425
380,597;  362,060;  360,486;  359,965
380,673;  397,480;  390,456;  394,425
380,748;  356,380;  358,046;  358,445
380,824;  373,940;  367,676;  369,935
380,899;  386,560;  386,216;  388,425
380,975;  370,220;  365,475;  366,905
381,050;  354,800;  352,806;  352,825
381,126;  373,980;  370,526;  373,695
381,201;  409,480;  398,806;  402,495
381,277;  378,400;  373,435;  374,795
381,352;  390,460;  388,105;  390,855
381,427;  380,180;  372,586;  376,025
381,503;  386,460;  378,896;  379,385
381,578;  372,420;  360,605;  365,515
381,653;  371,680;  368,776;  372,375
381,729;  368,640;  361,535;  360,945
381,804;  369,920;  367,475;  368,805
381,879;  387,140;  383,306;  386,055
381,955;  358,320;  354,396;  356,545
382,030;  357,780;  356,556;  357,225
382,105;  377,800;  375,586;  372,555
382,181;  370,720;  367,466;  371,255
382,256;  376,560;  378,116;  374,765
382,331;  375,540;  367,216;  371,745
382,406;  353,020;  353,266;  357,745
382,482;  364,020;  361,315;  357,655
382,557;  367,380;  363,526;  366,745
382,632;  376,140;  370,595;  371,585
382,707;  364,760;  361,135;  365,615
382,782;  367,160;  361,516;  366,275
382,857;  365,920;  358,996;  361,035
382,933;  351,180;  351,776;  352,995
383,008;  344,140;  344,065;  345,165
383,083;  378,120;  376,866;  379,215
383,158;  382,520;  378,866;  381,615
383,233;  362,060;  362,385;  363,105
383,308;  366,720;  359,875;  362,675
383,383;  394,360;  389,445;  391,785
383,458;  365,320;  361,135;  360,475
383,533;  346,960;  342,456;  344,625
383,608;  392,340;  387,885;  390,385
383,683;  388,960;  385,046;  389,585
383,758;  381,920;  380,285;  380,925
383,833;  374,180;  370,296;  371,015
383,908;  347,400;  343,206;  342,165
383,983;  351,280;  346,296;  350,755
384,058;  361,440;  355,246;  357,655
384,133;  369,920;  368,185;  368,575
384,208;  382,620;  376,796;  379,565
384,283;  355,820;  348,736;  351,825
384,358;  386,120;  381,845;  387,485
384,433;  354,080;  357,496;  357,355
384,508;  374,200;  368,966;  373,895
384,583;  381,040;  373,725;  375,265
384,658;  368,600;  367,915;  371,275
384,732;  344,500;  339,456;  339,705
384,807;  365,480;  366,935;  369,005
384,882;  375,060;  371,246;  373,145
384,957;  368,180;  368,095;  371,985
385,032;  375,900;  375,426;  376,555
385,106;  371,800;  370,216;  371,515
385,181;  359,380;  351,385;  357,155
385,256;  366,280;  363,565;  366,745
385,331;  377,780;  371,935;  373,255
385,405;  384,740;  380,975;  381,445
385,480;  372,340;  365,695;  366,715
385,555;  408,100;  399,306;  400,405
385,630;  393,220;  390,956;  395,935
385,704;  376,360;  374,056;  377,105
385,779;  364,700;  364,405;  364,855
385,854;  371,280;  368,746;  369,975
385,928;  364,080;  363,016;  365,315
386,003;  402,620;  402,586;  405,115
386,078;  379,240;  372,466;  374,995
386,152;  407,760;  401,456;  401,815
386,227;  360,580;  357,646;  361,225
386,301;  382,420;  378,725;  380,385
386,376;  362,360;  348,695;  355,015
386,450;  383,340;  378,616;  381,145
386,525;  377,200;  373,556;  377,655
386,600;  389,540;  385,746;  385,925
386,674;  369,400;  364,076;  367,315
386,749;  382,960;  375,095;  381,315
386,823;  382,380;  377,435;  382,095
386,898;  384,640;  379,766;  380,535
386,972;  390,240;  380,966;  385,985
387,047;  374,420;  369,776;  374,355
387,121;  382,040;  379,695;  380,335
387,195;  362,420;  357,875;  359,895
387,270;  391,340;  385,625;  385,415
387,344;  409,400;  404,405;  407,055
387,419;  393,540;  385,665;  393,195
387,493;  381,200;  377,776;  379,825
387,567;  361,460;  355,005;  358,475
387,642;  410,900;  403,586;  405,945
387,716;  379,660;  369,565;  372,245
387,790;  371,140;  367,706;  371,225
387,865;  379,540;  372,806;  373,715
387,939;  406,160;  403,005;  404,415
388,013;  389,460;  384,806;  386,145
388,088;  371,220;  368,655;  370,085
388,162;  372,960;  370,135;  371,835
388,236;  375,080;  372,456;  375,275
388,310;  363,640;  361,966;  364,475
388,385;  398,140;  397,185;  400,845
388,459;  382,140;  379,996;  380,235
388,533;  365,180;  363,676;  362,565
388,607;  367,580;  366,776;  365,955
388,682;  379,740;  374,806;  375,745
388,756;  363,500;  355,035;  360,825
388,830;  394,320;  390,255;  394,075
388,904;  384,860;  378,276;  385,365
388,978;  370,620;  369,535;  370,165
389,052;  376,540;  375,396;  377,225
389,126;  375,920;  370,435;  376,195
389,200;  376,120;  372,665;  377,205
389,275;  375,420;  369,266;  367,695
389,349;  376,160;  374,695;  373,065
389,423;  371,580;  369,565;  369,375
389,497;  384,660;  380,966;  383,775
389,571;  369,120;  368,665;  370,175
389,645;  380,540;  376,806;  379,805
389,719;  373,900;  369,396;  372,955
389,793;  347,620;  346,576;  348,725
389,867;  405,160;  398,035;  402,955
389,941;  377,320;  375,375;  377,215
390,015;  363,960;  361,135;  364,515
390,089;  363,200;  360,426;  362,085
390,163;  378,440;  372,456;  375,935
390,237;  382,140;  375,435;  379,295
390,310;  381,940;  379,276;  382,155
390,384;  385,620;  376,546;  383,625
390,458;  408,480;  400,826;  403,825
390,532;  386,700;  383,496;  386,725
390,606;  367,500;  365,945;  369,265
390,680;  369,400;  366,466;  368,115
390,754;  372,600;  366,385;  368,915
390,827;  396,640;  388,276;  392,645
390,901;  396,820;  391,855;  396,215
390,975;  374,900;  368,905;  370,295
391,049;  368,960;  366,366;  364,315
391,123;  364,220;  362,685;  363,545
391,196;  368,100;  367,635;  367,855
391,270;  385,500;  378,426;  377,835
391,344;  362,500;  360,056;  359,585
391,418;  380,040;  372,975;  372,155
391,491;  361,280;  362,655;  363,995
391,565;  364,920;  362,065;  366,105
391,639;  401,640;  394,345;  397,875
391,712;  390,620;  385,815;  384,375
391,786;  386,700;  382,646;  386,785
391,860;  369,760;  369,385;  370,925
391,933;  373,560;  369,935;  371,115
392,007;  376,640;  371,355;  380,875
392,081;  401,200;  396,456;  399,955
392,154;  384,740;  377,845;  383,895
392,228;  398,500;  391,366;  394,685
392,301;  384,060;  376,266;  381,275
392,375;  388,360;  386,076;  389,995
392,448;  382,640;  379,516;  384,445
392,522;  375,560;  376,236;  379,965
392,595;  372,360;  370,105;  374,245
392,669;  379,580;  376,116;  379,675
392,742;  393,620;  390,975;  396,915
392,816;  395,980;  397,296;  400,205
392,889;  395,480;  392,746;  396,605
392,963;  414,780;  409,095;  409,745
393,036;  390,760;  385,345;  386,785
393,110;  394,960;  391,155;  393,885
393,183;  409,280;  400,836;  405,685
393,257;  421,900;  415,456;  417,745
393,330;  368,720;  365,845;  369,745
393,403;  395,080;  390,486;  395,585
393,477;  360,380;  355,845;  358,875
393,550;  392,480;  390,306;  395,545
393,623;  392,400;  388,396;  388,295
393,697;  407,420;  406,056;  406,835
393,770;  380,840;  376,556;  379,065
393,843;  409,280;  402,996;  406,915
393,917;  401,280;  394,216;  398,485
393,990;  412,840;  409,996;  410,125
394,063;  393,440;  386,855;  392,225
394,136;  396,080;  388,635;  391,675
394,210;  398,500;  393,336;  395,655
394,283;  406,480;  402,785;  407,175
394,356;  398,880;  399,165;  399,175
394,429;  400,800;  396,935;  398,825
394,502;  389,760;  382,016;  383,895
394,576;  418,300;  414,125;  414,715
394,649;  382,480;  378,776;  377,865
394,722;  404,300;  400,896;  403,785
394,795;  414,520;  408,306;  413,185
394,868;  386,840;  384,135;  385,985
394,941;  375,700;  376,435;  375,265
395,014;  419,740;  417,056;  420,205
395,088;  404,700;  398,956;  399,175
395,161;  400,300;  395,466;  398,685
395,234;  413,020;  409,236;  410,735
395,307;  405,900;  402,236;  405,525
395,380;  385,660;  384,736;  385,325
395,453;  435,980;  436,845;  437,285
395,526;  416,800;  408,385;  412,495
395,599;  435,580;  426,926;  430,645
395,672;  397,820;  394,586;  394,895
395,745;  417,900;  417,125;  421,075
395,818;  379,200;  376,306;  378,615
395,891;  392,100;  385,635;  387,695
395,964;  415,900;  415,896;  414,885
396,036;  389,040;  387,486;  384,175
396,109;  397,980;  392,076;  395,785
396,182;  402,800;  396,766;  399,545
396,255;  400,900;  399,225;  398,845
396,328;  413,720;  410,065;  411,075
396,401;  374,360;  370,746;  371,295
396,474;  383,820;  381,086;  381,505
396,547;  400,780;  397,046;  400,645
396,619;  395,720;  390,755;  390,525
396,692;  414,200;  404,866;  411,355
396,765;  373,820;  370,616;  372,985
396,838;  391,820;  388,225;  388,295
396,911;  375,500;  371,266;  373,155
396,983;  395,260;  392,496;  392,385
397,056;  372,420;  372,355;  374,095
397,129;  391,280;  387,796;  389,615
397,201;  395,140;  391,556;  389,605
397,274;  391,060;  385,366;  389,335
397,347;  364,920;  363,345;  363,665
397,420;  388,840;  384,605;  387,195
397,492;  388,060;  388,296;  388,685
397,565;  381,060;  375,915;  379,595
397,637;  373,900;  369,366;  372,085
397,710;  355,380;  351,586;  350,295
397,783;  413,280;  412,855;  414,805
397,855;  347,160;  345,345;  347,055
397,928;  374,600;  368,336;  371,095
398,000;  399,140;  395,866;  396,635
398,073;  388,660;  386,546;  384,745
398,146;  381,440;  376,706;  377,295
398,218;  396,140;  390,255;  393,135
398,291;  390,960;  385,806;  387,915
398,363;  383,620;  381,755;  384,505
398,436;  371,240;  369,855;  374,675
398,508;  385,600;  383,266;  385,345
398,581;  379,980;  378,206;  380,565
398,653;  380,100;  374,255;  373,825
398,726;  386,360;  378,535;  383,385
398,798;  388,860;  383,306;  387,885
398,870;  393,500;  391,116;  396,905
398,943;  371,860;  366,236;  369,775
399,015;  363,240;  365,676;  368,815
399,088;  391,180;  389,655;  388,435
399,160;  369,640;  368,076;  368,815
399,232;  357,160;  350,405;  352,095
399,305;  372,420;  368,435;  372,935
399,377;  383,720;  377,905;  377,535
399,449;  392,600;  386,246;  388,735
399,522;  424,920;  421,875;  424,965
399,594;  368,440;  364,576;  365,315
399,666;  387,960;  382,625;  385,235
399,738;  376,180;  373,336;  375,225
399,811;  379,580;  376,736;  377,025
399,883;  395,280;  386,105;  388,295
399,955;  392,760;  389,855;  389,195
400,027;  345,880;  345,945;  349,545
400,100;  407,820;  407,366;  409,275
400,172;  351,620;  348,296;  349,645
400,244;  382,560;  378,225;  381,195
400,316;  398,620;  393,016;  393,505
400,388;  391,940;  389,385;  393,005
400,460;  368,580;  359,306;  364,605
400,532;  354,440;  350,826;  351,835
400,605;  390,720;  377,736;  384,975
400,677;  406,660;  402,285;  404,675
400,749;  401,560;  395,685;  398,125
400,821;  389,380;  385,956;  388,105
400,893;  382,860;  379,445;  382,305
400,965;  390,620;  386,755;  392,785
401,037;  389,500;  387,565;  392,525
401,109;  377,760;  370,725;  373,835
401,181;  382,020;  380,716;  385,485

