pru
Integration time [ms]:   0,150
Averaging Nr. [scans]: 50
Smoothing Nr. [pixels]: 0
Data measured with spectrometer [name]: 7416147SP
Wave   ;Sample   ;Dark     ;Reference
[nm]   ;[counts] ;[counts] ;[counts] 

230,218;  291,557;  290,315;  293,845
230,311;  320,478;  319,885;  318,565
230,404;  312,818;  309,855;  312,875
230,497;  324,217;  317,385;  315,715
230,591;  337,158;  333,426;  335,355
230,684;  333,497;  326,486;  329,355
230,777;  313,297;  311,736;  314,765
230,870;  317,318;  313,326;  316,955
230,964;  313,918;  310,885;  314,745
231,057;  340,758;  342,496;  343,475
231,150;  335,897;  331,695;  332,715
231,243;  327,938;  330,635;  332,775
231,336;  333,578;  331,375;  331,335
231,430;  319,277;  316,496;  317,715
231,523;  325,237;  324,516;  326,785
231,616;  309,717;  305,445;  309,685
231,709;  344,557;  328,065;  330,025
231,802;  319,797;  300,945;  301,885
231,895;  312,358;  299,836;  300,315
231,988;  327,617;  315,655;  318,535
232,082;  311,878;  298,155;  302,425
232,175;  316,198;  302,155;  306,175
232,268;  312,557;  301,266;  305,345
232,361;  320,098;  304,806;  307,515
232,454;  334,777;  322,396;  323,025
232,547;  333,297;  318,716;  322,655
232,640;  310,478;  296,766;  294,035
232,733;  329,358;  314,116;  323,045
232,826;  305,237;  288,915;  295,035
232,919;  328,997;  313,826;  312,665
233,012;  305,698;  293,646;  292,775
233,105;  311,737;  294,766;  298,815
233,199;  317,538;  299,875;  304,045
233,292;  307,978;  293,475;  296,235
233,385;  274,017;  263,426;  262,225
233,478;  308,978;  293,885;  295,685
233,571;  338,418;  324,586;  327,675
233,664;  321,177;  305,996;  308,435
233,757;  295,717;  280,796;  281,395
233,850;  297,638;  282,255;  285,825
233,943;  307,677;  290,896;  292,195
234,035;  316,497;  300,576;  302,355
234,128;  293,598;  281,836;  283,945
234,221;  311,797;  297,665;  298,245
234,314;  323,578;  304,915;  311,975
234,407;  321,538;  302,935;  309,075
234,500;  298,497;  277,625;  281,875
234,593;  304,617;  287,095;  285,735
234,686;  312,177;  293,746;  293,765
234,779;  305,457;  291,266;  293,165
234,872;  296,897;  281,806;  281,565
234,965;  305,598;  292,806;  290,795
235,058;  293,617;  274,155;  276,215
235,150;  306,017;  285,776;  290,805
235,243;  298,138;  282,736;  284,425
235,336;  320,557;  300,695;  304,545
235,429;  285,878;  273,646;  272,515
235,522;  343,957;  330,996;  335,445
235,615;  279,957;  262,276;  265,145
235,707;  299,158;  282,415;  282,335
235,800;  300,858;  289,815;  290,515
235,893;  303,617;  289,956;  292,955
235,986;  315,858;  298,266;  299,325
236,079;  301,098;  286,586;  291,125
236,171;  286,918;  270,725;  271,865
236,264;  326,557;  312,635;  313,275
236,357;  306,557;  290,986;  293,865
236,450;  325,177;  315,225;  317,215
236,542;  282,418;  267,065;  272,575
236,635;  328,997;  313,546;  316,385
236,728;  297,837;  285,516;  288,115
236,821;  298,598;  280,165;  283,715
236,913;  289,997;  277,896;  276,315
237,006;  282,497;  271,605;  275,435
237,099;  295,758;  283,896;  285,575
237,191;  311,797;  298,796;  300,225
237,284;  284,378;  267,896;  272,995
237,377;  312,337;  294,725;  297,495
237,470;  303,138;  285,415;  287,875
237,562;  289,658;  276,866;  275,785
237,655;  341,997;  320,945;  324,565
237,747;  308,517;  292,695;  295,845
237,840;  330,418;  313,086;  314,435
237,933;  318,098;  300,445;  301,555
238,025;  320,578;  301,415;  301,595
238,118;  298,438;  282,456;  287,755
238,211;  288,978;  268,155;  272,375
238,303;  288,737;  272,296;  273,415
238,396;  284,457;  268,065;  271,945
238,488;  306,457;  292,625;  291,075
238,581;  307,858;  287,855;  289,445
238,673;  304,797;  285,766;  286,865
238,766;  299,978;  282,635;  283,185
238,859;  289,297;  273,586;  276,105
238,951;  299,557;  281,095;  282,835
239,044;  293,258;  276,496;  279,525
239,136;  285,038;  269,035;  271,705
239,229;  297,677;  280,665;  283,435
239,321;  290,277;  271,255;  276,105
239,414;  309,098;  289,875;  292,345
239,506;  300,217;  284,625;  290,655
239,599;  330,598;  316,315;  315,935
239,691;  300,497;  287,945;  287,755
239,784;  316,457;  301,926;  304,175
239,876;  311,957;  295,005;  294,715
239,969;  306,658;  284,426;  288,635
240,061;  286,378;  269,505;  272,655
240,153;  295,258;  276,776;  278,405
240,246;  308,078;  287,635;  287,925
240,338;  331,038;  315,285;  314,405
240,431;  286,818;  268,896;  270,455
240,523;  290,557;  269,315;  270,665
240,615;  314,078;  299,086;  301,495
240,708;  329,698;  309,945;  312,145
240,800;  302,918;  286,956;  289,175
240,893;  289,517;  272,216;  274,965
240,985;  306,638;  286,116;  289,995
241,077;  283,717;  269,866;  271,905
241,170;  315,297;  300,355;  300,805
241,262;  307,557;  293,695;  290,825
241,354;  272,457;  252,305;  253,985
241,447;  296,617;  281,326;  283,905
241,539;  283,177;  266,746;  270,745
241,631;  333,717;  314,366;  317,275
241,724;  280,237;  259,135;  260,655
241,816;  300,277;  279,385;  281,545
241,908;  297,358;  275,056;  280,445
242,000;  293,797;  277,625;  279,505
242,093;  296,158;  277,725;  280,745
242,185;  294,978;  277,736;  277,535
242,277;  290,497;  274,695;  277,115
242,369;  302,057;  282,146;  286,335
242,462;  292,517;  274,405;  274,215
242,554;  295,318;  277,146;  281,105
242,646;  298,797;  283,146;  286,575
242,738;  325,517;  303,255;  307,195
242,830;  278,797;  259,026;  260,415
242,923;  318,557;  297,035;  299,015
243,015;  286,578;  268,655;  266,675
243,107;  288,478;  267,676;  271,255
243,199;  293,098;  276,345;  278,365
243,291;  290,997;  272,125;  276,215
243,383;  269,057;  254,826;  256,465
243,476;  281,397;  269,435;  268,005
243,568;  300,258;  280,915;  284,885
243,660;  296,258;  273,385;  279,575
243,752;  302,897;  279,796;  287,275
243,844;  318,457;  300,766;  302,705
243,936;  304,837;  291,956;  293,555
244,028;  319,438;  304,796;  307,475
244,120;  267,598;  254,346;  255,525
244,212;  312,378;  293,826;  293,755
244,305;  285,337;  268,496;  267,935
244,397;  301,418;  289,165;  291,675
244,489;  325,217;  304,276;  307,925
244,581;  313,658;  299,255;  300,795
244,673;  297,818;  281,806;  283,225
244,765;  301,517;  286,035;  290,565
244,857;  299,117;  284,986;  287,335
244,949;  306,677;  283,956;  284,945
245,041;  265,578;  250,865;  255,005
245,133;  308,397;  293,695;  296,625
245,225;  293,777;  277,915;  280,695
245,317;  297,457;  289,456;  289,025
245,409;  281,418;  263,755;  269,375
245,501;  305,737;  288,496;  293,045
245,593;  304,457;  286,255;  290,055
245,685;  303,878;  285,405;  288,735
245,776;  299,858;  285,945;  287,235
245,868;  285,797;  271,276;  272,565
245,960;  280,337;  265,875;  263,405
246,052;  321,217;  310,766;  310,445
246,144;  307,658;  294,165;  294,205
246,236;  297,217;  283,576;  283,565
246,328;  304,497;  291,345;  293,965
246,420;  294,538;  279,746;  280,855
246,512;  323,758;  308,236;  310,455
246,604;  298,557;  282,526;  286,825
246,695;  285,358;  273,345;  272,135
246,787;  312,418;  293,526;  301,145
246,879;  309,777;  292,716;  297,145
246,971;  312,938;  299,276;  300,965
247,063;  294,457;  273,255;  278,605
247,155;  310,797;  294,516;  297,195
247,246;  300,978;  283,266;  283,715
247,338;  309,957;  288,116;  294,265
247,430;  317,658;  299,945;  303,475
247,522;  319,318;  297,546;  300,555
247,613;  313,198;  296,586;  299,675
247,705;  306,737;  286,896;  288,445
247,797;  328,237;  305,776;  307,475
247,889;  316,497;  294,706;  295,475
247,980;  324,378;  285,676;  291,995
248,072;  326,277;  282,845;  285,895
248,164;  349,777;  293,216;  298,385
248,256;  302,397;  271,366;  274,105
248,347;  330,638;  309,785;  311,065
248,439;  298,038;  283,165;  282,675
248,531;  324,378;  303,885;  304,835
248,622;  326,457;  307,206;  308,325
248,714;  294,858;  276,945;  278,365
248,806;  311,818;  293,655;  298,015
248,897;  305,378;  291,535;  292,985
248,989;  279,698;  263,956;  263,855
249,081;  297,957;  283,355;  284,905
249,172;  308,098;  289,926;  295,135
249,264;  291,717;  272,076;  273,435
249,356;  285,698;  269,326;  273,745
249,447;  296,818;  282,176;  284,525
249,539;  301,818;  283,086;  284,645
249,630;  310,758;  289,875;  288,495
249,722;  332,318;  313,276;  315,395
249,813;  295,237;  280,496;  284,125
249,905;  311,777;  289,426;  293,665
249,997;  300,078;  281,445;  280,615
250,088;  303,918;  282,255;  288,985
250,180;  303,438;  283,695;  284,575
250,271;  303,057;  281,195;  280,335
250,363;  335,878;  319,105;  320,755
250,454;  297,138;  273,035;  275,615
250,546;  311,337;  285,926;  289,415
250,637;  282,658;  264,445;  261,845
250,729;  293,617;  266,505;  269,555
250,820;  313,318;  289,915;  292,965
250,912;  289,358;  262,355;  267,085
251,003;  302,237;  278,396;  280,475
251,095;  306,017;  282,086;  284,555
251,186;  300,198;  271,415;  274,775
251,277;  301,297;  271,986;  275,265
251,369;  303,938;  275,975;  275,105
251,460;  300,117;  271,456;  273,815
251,552;  314,897;  278,475;  279,655
251,643;  303,457;  268,796;  267,375
251,735;  304,098;  265,246;  267,375
251,826;  297,737;  258,016;  263,245
251,917;  332,777;  278,035;  279,115
252,009;  327,158;  273,396;  275,605
252,100;  332,117;  281,426;  283,345
252,191;  350,858;  289,996;  292,015
252,283;  345,538;  265,095;  267,705
252,374;  368,397;  278,296;  278,375
252,465;  390,897;  295,405;  298,605
252,557;  389,957;  283,576;  286,365
252,648;  389,418;  265,146;  268,635
252,739;  418,478;  280,516;  282,125
252,831;  423,777;  270,836;  280,355
252,922;  456,057;  282,296;  280,045
253,013;  501,897;  273,956;  284,285
253,104;  554,297;  270,076;  270,335
253,196;  659,438;  271,366;  271,175
253,287;  818,378;  281,836;  277,135
253,378; 1185,037;  276,276;  277,975
253,469; 3715,958;  272,385;  276,445
253,561;20615,877;  273,496;  278,855
253,652;40562,516;  282,266;  280,015
253,743; 6587,697;  276,216;  280,985
253,834;  614,237;  259,146;  265,875
253,926;  491,758;  262,605;  267,485
254,017;  472,138;  284,236;  290,235
254,108;  443,777;  291,836;  290,565
254,199;  432,237;  285,326;  291,185
254,290;  431,457;  312,725;  313,865
254,381;  415,158;  287,076;  291,155
254,472;  413,797;  291,935;  300,495
254,564;  411,297;  312,766;  307,565
254,655;  390,258;  304,755;  308,105
254,746;  345,978;  264,896;  264,025
254,837;  378,297;  293,105;  298,435
254,928;  356,557;  266,836;  271,975
255,019;  368,497;  283,505;  286,805
255,110;  367,318;  300,165;  301,665
255,201;  350,138;  281,155;  287,655
255,292;  377,438;  312,706;  316,275
255,383;  345,777;  275,785;  275,725
255,474;  338,717;  273,306;  273,095
255,566;  351,418;  283,926;  286,645
255,657;  346,277;  298,556;  302,445
255,748;  308,978;  271,415;  278,125
255,839;  323,638;  280,695;  282,485
255,930;  333,638;  287,866;  289,735
256,021;  339,758;  298,845;  298,115
256,112;  311,098;  278,456;  278,735
256,203;  345,878;  311,866;  313,365
256,294;  332,198;  293,496;  299,575
256,384;  314,818;  270,565;  275,715
256,475;  318,997;  290,996;  294,595
256,566;  310,478;  281,246;  287,825
256,657;  300,578;  278,945;  278,915
256,748;  303,658;  281,285;  284,675
256,839;  295,918;  274,426;  273,555
256,930;  302,217;  279,165;  283,055
257,021;  325,918;  304,155;  306,465
257,112;  323,258;  304,926;  309,235
257,203;  277,378;  258,445;  259,825
257,294;  276,497;  254,465;  262,175
257,385;  312,897;  288,526;  294,205
257,475;  298,818;  279,135;  278,545
257,566;  311,858;  287,586;  292,255
257,657;  291,258;  269,595;  270,025
257,748;  290,938;  275,935;  276,095
257,839;  299,658;  287,915;  286,025
257,930;  304,117;  285,736;  290,395
258,020;  287,217;  269,716;  271,535
258,111;  279,057;  262,225;  263,255
258,202;  303,557;  288,326;  289,935
258,293;  297,478;  284,655;  285,305
258,384;  320,797;  305,595;  307,665
258,474;  298,117;  288,676;  291,995
258,565;  285,277;  271,635;  273,435
258,656;  303,318;  292,966;  295,145
258,747;  290,017;  271,475;  275,425
258,837;  287,358;  274,246;  273,695
258,928;  286,878;  275,785;  278,605
259,019;  282,897;  268,415;  270,595
259,109;  282,698;  269,685;  269,425
259,200;  298,078;  286,105;  289,815
259,291;  278,897;  269,975;  271,655
259,381;  309,557;  293,026;  295,635
259,472;  309,117;  295,796;  296,545
259,563;  313,758;  303,065;  305,845
259,653;  293,677;  278,296;  281,385
259,744;  278,318;  268,826;  267,735
259,835;  315,517;  300,975;  302,815
259,925;  285,658;  271,505;  277,075
260,016;  293,997;  286,746;  287,585
260,107;  272,717;  258,035;  264,715
260,197;  298,318;  283,975;  286,325
260,288;  286,538;  274,565;  279,155
260,378;  276,538;  267,195;  271,275
260,469;  296,957;  285,915;  288,765
260,560;  280,957;  266,146;  269,495
260,650;  280,277;  271,736;  275,665
260,741;  286,658;  276,366;  279,035
260,831;  283,397;  272,855;  275,905
260,922;  278,837;  266,206;  269,545
261,012;  283,237;  277,665;  278,255
261,103;  309,818;  301,785;  302,875
261,193;  311,478;  302,086;  303,915
261,284;  277,717;  271,806;  273,005
261,374;  313,378;  296,385;  303,855
261,465;  298,997;  287,755;  289,435
261,555;  289,897;  282,255;  280,715
261,646;  297,997;  292,475;  294,375
261,736;  297,237;  287,435;  290,535
261,827;  293,797;  283,716;  284,935
261,917;  318,897;  311,736;  311,595
262,007;  294,598;  283,986;  288,075
262,098;  296,478;  289,445;  287,725
262,188;  335,938;  326,655;  333,475
262,279;  311,098;  300,185;  299,795
262,369;  298,418;  286,285;  289,225
262,459;  298,318;  288,246;  290,365
262,550;  311,737;  303,266;  301,565
262,640;  282,978;  273,005;  276,555
262,731;  305,457;  300,935;  299,335
262,821;  320,997;  310,535;  312,255
262,911;  311,397;  297,875;  298,285
263,002;  295,337;  289,625;  290,825
263,092;  310,217;  303,956;  306,295
263,182;  290,797;  284,806;  285,755
263,273;  293,638;  285,426;  289,395
263,363;  302,598;  300,746;  299,385
263,453;  271,717;  267,375;  268,605
263,543;  300,217;  289,815;  289,615
263,634;  271,737;  266,516;  266,365
263,724;  302,997;  292,586;  293,065
263,814;  316,978;  308,706;  308,885
263,904;  291,658;  281,966;  285,905
263,995;  332,397;  322,276;  322,325
264,085;  297,957;  295,855;  294,575
264,175;  298,598;  296,706;  296,385
264,265;  324,297;  321,105;  321,865
264,356;  283,337;  270,466;  274,385
264,446;  317,617;  308,996;  307,575
264,536;  303,478;  294,026;  297,515
264,626;  320,758;  318,486;  320,175
264,716;  306,457;  298,435;  303,275
264,806;  319,578;  308,776;  310,415
264,897;  267,698;  258,135;  258,615
264,987;  311,717;  303,535;  304,475
265,077;  311,938;  287,046;  292,545
265,167;  371,318;  310,216;  311,575
265,257;  338,217;  290,445;  290,535
265,347;  329,418;  294,336;  295,795
265,437;  326,078;  296,176;  300,635
265,527;  318,698;  293,155;  294,765
265,617;  290,418;  279,875;  285,145
265,708;  323,638;  314,216;  314,825
265,798;  310,478;  305,415;  307,055
265,888;  310,117;  300,716;  305,545
265,978;  300,797;  294,496;  295,825
266,068;  318,378;  310,155;  315,855
266,158;  299,578;  294,005;  297,205
266,248;  276,337;  274,016;  276,865
266,338;  315,938;  313,035;  314,815
266,428;  307,177;  300,635;  302,655
266,518;  315,617;  311,405;  315,615
266,608;  308,777;  299,725;  294,215
266,698;  276,997;  273,586;  276,245
266,788;  284,978;  274,456;  277,745
266,878;  336,617;  325,776;  330,865
266,968;  319,217;  306,725;  309,425
267,058;  308,837;  297,375;  302,895
267,147;  310,057;  301,845;  302,905
267,237;  299,617;  291,815;  295,765
267,327;  291,758;  286,755;  287,895
267,417;  307,078;  301,225;  303,385
267,507;  303,878;  292,176;  294,215
267,597;  293,598;  282,026;  283,655
267,687;  290,878;  285,165;  287,755
267,777;  290,057;  283,986;  284,615
267,867;  320,897;  312,125;  312,585
267,956;  307,878;  302,466;  304,005
268,046;  314,138;  305,466;  310,865
268,136;  304,177;  296,875;  298,905
268,226;  279,858;  274,885;  274,965
268,316;  283,797;  280,766;  280,845
268,406;  297,557;  289,516;  287,595
268,495;  291,878;  284,415;  287,935
268,585;  312,837;  306,716;  309,605
268,675;  289,017;  284,336;  285,535
268,765;  300,517;  296,355;  300,115
268,854;  294,438;  285,935;  286,715
268,944;  298,818;  291,646;  293,805
269,034;  289,177;  283,986;  289,715
269,124;  289,758;  287,216;  290,705
269,213;  293,598;  286,336;  285,525
269,303;  294,038;  290,466;  288,585
269,393;  308,938;  299,845;  298,345
269,483;  309,737;  300,966;  302,735
269,572;  291,358;  282,875;  284,665
269,662;  282,517;  276,105;  283,315
269,752;  319,017;  312,736;  315,705
269,841;  273,938;  266,046;  269,455
269,931;  290,598;  281,586;  283,075
270,021;  307,758;  300,766;  304,675
270,110;  292,078;  285,695;  288,925
270,200;  296,617;  291,665;  299,445
270,289;  288,818;  280,785;  281,105
270,379;  305,777;  301,466;  302,775
270,469;  300,538;  290,556;  289,955
270,558;  307,918;  303,655;  302,185
270,648;  288,017;  282,785;  284,885
270,737;  299,957;  288,526;  291,525
270,827;  320,677;  310,185;  313,455
270,916;  294,158;  286,935;  289,915
271,006;  301,897;  293,475;  292,885
271,096;  325,117;  317,005;  317,215
271,185;  292,897;  289,896;  289,145
271,275;  310,497;  300,706;  303,575
271,364;  282,737;  281,535;  285,725
271,454;  316,497;  308,255;  315,275
271,543;  300,837;  296,935;  297,745
271,633;  295,258;  293,926;  292,835
271,722;  297,797;  292,255;  296,455
271,812;  294,818;  286,296;  289,275
271,901;  298,758;  292,326;  293,765
271,990;  297,897;  291,836;  290,915
272,080;  299,617;  290,635;  294,915
272,169;  304,858;  301,905;  302,555
272,259;  301,457;  293,225;  292,695
272,348;  308,138;  305,796;  308,535
272,438;  296,397;  296,935;  293,635
272,527;  305,818;  303,996;  304,365
272,616;  308,078;  301,866;  305,295
272,706;  329,777;  320,935;  323,195
272,795;  321,158;  314,076;  315,755
272,884;  303,538;  297,076;  299,515
272,974;  321,418;  317,975;  319,965
273,063;  339,957;  338,206;  337,765
273,152;  311,818;  310,306;  307,735
273,242;  327,078;  320,276;  324,915
273,331;  323,057;  319,315;  322,835
273,420;  307,758;  301,105;  310,255
273,510;  311,177;  307,355;  308,155
273,599;  311,358;  303,255;  306,195
273,688;  310,897;  302,605;  301,885
273,778;  290,737;  285,065;  287,095
273,867;  317,017;  320,266;  317,015
273,956;  310,258;  303,725;  303,805
274,045;  280,797;  273,966;  275,965
274,135;  314,057;  303,905;  305,375
274,224;  299,758;  286,516;  290,045
274,313;  316,517;  305,586;  307,745
274,402;  287,777;  284,796;  287,085
274,491;  316,517;  310,975;  312,995
274,581;  309,658;  301,415;  302,765
274,670;  299,337;  293,146;  294,385
274,759;  308,418;  299,405;  300,435
274,848;  283,617;  276,655;  279,925
274,937;  294,117;  289,945;  287,635
275,026;  290,677;  285,616;  287,835
275,116;  327,918;  316,415;  315,805
275,205;  296,057;  266,926;  271,135
275,294;  333,258;  302,315;  304,335
275,383;  304,297;  299,905;  297,985
275,472;  294,938;  290,005;  290,825
275,561;  294,138;  290,505;  290,285
275,650;  311,538;  306,046;  306,435
275,739;  299,517;  294,776;  297,985
275,828;  273,777;  274,635;  277,965
275,917;  318,517;  312,065;  306,825
276,006;  301,017;  295,426;  296,835
276,095;  298,038;  294,526;  298,665
276,184;  311,418;  309,556;  307,945
276,273;  305,797;  303,105;  304,505
276,362;  276,797;  275,896;  278,535
276,451;  291,837;  291,306;  291,915
276,540;  299,017;  295,896;  296,105
276,629;  292,638;  292,576;  293,225
276,718;  276,418;  270,695;  274,545
276,807;  281,198;  271,625;  274,825
276,896;  286,217;  280,526;  284,495
276,985;  293,297;  283,616;  289,365
277,074;  305,258;  299,105;  300,525
277,163;  301,378;  294,746;  299,085
277,252;  283,777;  279,646;  276,465
277,341;  292,217;  281,236;  289,265
277,430;  279,638;  276,845;  279,355
277,519;  304,358;  298,956;  301,695
277,608;  271,277;  266,546;  267,775
277,696;  275,057;  266,975;  269,445
277,785;  287,158;  284,095;  283,485
277,874;  304,138;  299,605;  296,795
277,963;  293,578;  288,155;  289,995
278,052;  271,418;  264,776;  265,525
278,141;  292,177;  288,415;  290,745
278,229;  293,418;  290,146;  291,935
278,318;  274,918;  268,236;  271,495
278,407;  294,897;  285,576;  285,935
278,496;  293,897;  289,915;  291,965
278,585;  305,478;  300,486;  302,275
278,673;  268,457;  263,836;  266,715
278,762;  276,938;  266,176;  270,485
278,851;  294,978;  285,496;  286,035
278,940;  308,438;  303,685;  303,305
279,028;  299,698;  296,306;  299,585
279,117;  294,638;  282,725;  286,655
279,206;  285,078;  279,475;  284,105
279,294;  287,117;  284,396;  286,665
279,383;  293,897;  286,646;  287,335
279,472;  299,858;  298,095;  298,295
279,561;  286,057;  283,355;  284,975
279,649;  320,538;  308,535;  308,935
279,738;  260,557;  255,566;  255,215
279,827;  314,858;  306,785;  308,805
279,915;  278,237;  275,285;  276,335
280,004;  294,777;  286,565;  288,905
280,092;  311,717;  305,236;  306,635
280,181;  293,758;  280,516;  282,605
280,270;  292,658;  277,866;  281,595
280,358;  306,598;  291,366;  288,915
280,447;  273,758;  261,415;  264,455
280,535;  284,078;  276,016;  275,945
280,624;  283,277;  274,185;  276,805
280,713;  285,478;  277,146;  283,385
280,801;  307,457;  293,116;  293,805
280,890;  295,378;  289,716;  295,475
280,978;  285,878;  280,755;  281,945
281,067;  258,177;  250,676;  255,865
281,155;  280,878;  274,855;  275,705
281,244;  323,337;  313,595;  316,445
281,332;  301,017;  290,845;  293,825
281,421;  283,177;  271,605;  273,675
281,509;  289,658;  284,646;  282,415
281,598;  269,438;  262,435;  263,765
281,686;  295,017;  290,776;  288,945
281,775;  295,117;  285,516;  290,815
281,863;  281,538;  278,016;  279,225
281,951;  282,217;  267,665;  270,735
282,040;  312,818;  300,315;  301,115
282,128;  304,837;  288,375;  294,235
282,217;  275,038;  265,926;  266,075
282,305;  309,837;  294,796;  294,045
282,393;  294,358;  286,505;  284,595
282,482;  290,177;  279,535;  283,255
282,570;  277,117;  266,945;  270,215
282,658;  292,758;  276,116;  277,715
282,747;  280,538;  265,026;  267,905
282,835;  319,938;  306,076;  309,035
282,923;  270,997;  264,655;  267,805
283,012;  293,237;  291,366;  296,345
283,100;  278,217;  269,185;  274,675
283,188;  268,337;  261,125;  262,525
283,277;  292,078;  284,336;  284,745
283,365;  276,378;  271,676;  278,375
283,453;  273,598;  264,755;  270,455
283,542;  299,297;  290,896;  293,765
283,630;  283,478;  276,195;  278,595
283,718;  279,457;  271,195;  274,365
283,806;  254,298;  241,706;  247,485
283,894;  279,878;  274,336;  274,395
283,983;  293,258;  282,165;  282,605
284,071;  295,457;  285,285;  291,495
284,159;  314,057;  309,125;  314,805
284,247;  295,538;  287,466;  288,555
284,335;  291,878;  286,935;  287,485
284,424;  293,177;  283,915;  288,465
284,512;  284,677;  283,475;  286,175
284,600;  286,837;  279,415;  280,145
284,688;  319,117;  312,815;  317,115
284,776;  292,978;  286,815;  287,745
284,864;  314,758;  302,125;  308,655
284,952;  293,497;  289,625;  289,025
285,041;  301,918;  298,255;  298,145
285,129;  309,297;  299,435;  302,445
285,217;  308,638;  300,056;  303,885
285,305;  323,237;  318,676;  319,885
285,393;  281,578;  275,776;  278,695
285,481;  302,177;  296,665;  298,405
285,569;  286,938;  282,966;  285,145
285,657;  301,777;  295,165;  296,255
285,745;  300,198;  292,655;  293,125
285,833;  296,598;  289,505;  293,165
285,921;  305,837;  298,116;  300,945
286,009;  314,517;  301,105;  303,655
286,097;  304,098;  298,236;  301,315
286,185;  292,717;  284,405;  284,795
286,273;  287,777;  283,415;  284,655
286,361;  318,557;  307,915;  311,825
286,449;  297,818;  296,195;  294,565
286,537;  304,997;  304,105;  302,085
286,625;  297,457;  291,185;  293,415
286,713;  284,177;  275,806;  280,315
286,801;  315,717;  312,076;  307,795
286,889;  320,098;  319,435;  320,055
286,976;  296,258;  287,905;  291,205
287,064;  316,578;  307,635;  311,875
287,152;  304,337;  303,576;  305,585
287,240;  313,758;  309,185;  308,845
287,328;  290,198;  287,685;  281,755
287,416;  294,538;  290,975;  292,385
287,504;  301,017;  294,435;  298,285
287,591;  305,918;  298,176;  300,225
287,679;  289,578;  286,095;  286,145
287,767;  302,897;  298,206;  296,985
287,855;  309,457;  303,736;  307,515
287,943;  313,918;  306,716;  309,435
288,030;  292,658;  293,456;  291,795
288,118;  323,918;  318,255;  318,995
288,206;  280,258;  274,956;  275,705
288,294;  306,818;  301,986;  304,135
288,382;  310,138;  300,776;  303,615
288,469;  313,737;  304,396;  308,895
288,557;  297,217;  294,095;  292,615
288,645;  327,598;  323,396;  323,315
288,732;  288,478;  278,915;  279,235
288,820;  309,277;  304,576;  306,785
288,908;  310,638;  304,826;  303,915
288,995;  319,337;  310,945;  310,305
289,083;  298,638;  293,026;  292,935
289,171;  335,017;  320,165;  325,565
289,258;  374,217;  322,176;  324,305
289,346;  435,038;  326,266;  329,365
289,434;  319,897;  303,435;  306,185
289,521;  290,438;  280,415;  286,295
289,609;  326,918;  320,426;  325,405
289,697;  322,438;  312,336;  315,125
289,784;  300,297;  295,445;  295,775
289,872;  314,858;  306,905;  313,015
289,959;  286,638;  282,375;  283,415
290,047;  303,538;  296,546;  300,865
290,134;  276,938;  272,665;  273,815
290,222;  319,878;  308,915;  308,665
290,310;  311,538;  304,905;  307,145
290,397;  334,517;  328,505;  332,835
290,485;  296,797;  290,815;  293,005
290,572;  317,457;  313,225;  314,645
290,660;  310,978;  306,385;  306,205
290,747;  297,578;  295,165;  292,775
290,835;  304,397;  299,016;  302,505
290,922;  306,297;  304,016;  305,515
291,009;  301,158;  297,676;  301,715
291,097;  303,457;  297,926;  300,755
291,184;  338,878;  332,716;  338,585
291,272;  290,677;  282,966;  288,375
291,359;  289,997;  283,915;  289,305
291,447;  309,698;  303,086;  304,735
291,534;  325,638;  327,326;  323,005
291,621;  308,177;  302,845;  301,105
291,709;  283,138;  285,716;  283,705
291,796;  317,777;  320,146;  316,555
291,884;  298,837;  291,466;  296,115
291,971;  322,277;  315,065;  320,295
292,058;  297,758;  288,725;  288,985
292,146;  298,878;  293,746;  297,955
292,233;  292,397;  285,426;  284,765
292,320;  298,538;  294,306;  297,685
292,408;  315,677;  309,086;  308,565
292,495;  303,918;  290,565;  293,085
292,582;  296,497;  286,845;  287,375
292,669;  290,098;  281,415;  286,055
292,757;  284,818;  282,176;  283,865
292,844;  313,318;  312,935;  313,175
292,931;  282,378;  275,176;  277,485
293,018;  298,138;  291,516;  289,915
293,106;  305,538;  299,966;  303,035
293,193;  277,358;  272,415;  274,385
293,280;  304,617;  297,255;  303,635
293,367;  298,337;  296,956;  295,215
293,455;  299,078;  293,185;  294,155
293,542;  282,378;  275,695;  281,445
293,629;  285,997;  279,035;  281,855
293,716;  313,457;  305,646;  311,195
293,803;  292,538;  287,105;  287,695
293,890;  317,457;  310,336;  312,555
293,978;  294,017;  284,105;  290,755
294,065;  292,797;  286,725;  284,345
294,152;  307,318;  302,385;  304,355
294,239;  280,098;  275,646;  274,625
294,326;  293,837;  286,746;  290,635
294,413;  283,957;  278,046;  278,465
294,500;  294,598;  292,586;  295,255
294,587;  289,858;  283,915;  287,195
294,674;  309,818;  305,875;  306,925
294,761;  293,337;  288,896;  287,945
294,848;  296,517;  286,866;  294,115
294,935;  299,117;  290,746;  290,555
295,022;  275,578;  272,396;  274,105
295,109;  265,297;  258,466;  262,665
295,196;  295,918;  291,405;  295,265
295,283;  283,717;  281,176;  278,745
295,370;  315,557;  308,975;  312,155
295,457;  292,717;  289,986;  290,435
295,544;  284,457;  285,105;  287,985
295,631;  295,818;  290,165;  295,805
295,718;  279,598;  272,676;  274,015
295,805;  303,578;  296,225;  296,685
295,892;  304,717;  300,005;  304,445
295,979;  296,978;  291,266;  292,755
296,066;  304,538;  293,996;  296,145
296,153;  307,277;  296,026;  296,355
296,240;  304,237;  299,206;  300,535
296,327;  299,638;  285,206;  285,615
296,413;  322,538;  301,285;  305,075
296,500;  340,938;  302,755;  305,145
296,587;  519,537;  288,616;  286,065
296,674; 1606,458;  294,396;  297,335
296,761;  837,097;  300,095;  298,245
296,848;  305,378;  281,956;  285,815
296,934;  302,677;  290,966;  295,265
297,021;  294,938;  292,565;  292,975
297,108;  285,277;  276,366;  280,895
297,195;  299,818;  291,466;  294,705
297,282;  290,418;  286,535;  286,195
297,368;  314,318;  310,026;  305,975
297,455;  286,617;  279,155;  283,145
297,542;  315,138;  311,375;  313,235
297,629;  305,557;  299,016;  300,205
297,715;  309,797;  308,285;  310,385
297,802;  305,337;  300,466;  303,285
297,889;  317,418;  311,716;  313,025
297,975;  328,237;  322,836;  323,685
298,062;  321,158;  310,505;  312,995
298,149;  276,538;  273,505;  274,905
298,235;  297,538;  291,135;  294,075
298,322;  298,177;  294,806;  292,785
298,409;  317,258;  311,195;  312,715
298,495;  290,818;  285,435;  283,435
298,582;  317,517;  307,516;  308,065
298,669;  297,478;  290,526;  294,245
298,755;  305,078;  299,065;  302,235
298,842;  310,098;  304,755;  309,095
298,928;  306,078;  303,855;  304,595
299,015;  298,138;  294,896;  296,705
299,102;  327,978;  318,986;  320,565
299,188;  321,717;  315,956;  316,045
299,275;  312,837;  309,926;  309,365
299,361;  279,598;  278,875;  281,665
299,448;  313,117;  312,466;  310,885
299,534;  314,117;  312,355;  312,735
299,621;  313,138;  304,655;  303,865
299,707;  306,717;  299,016;  304,675
299,794;  320,378;  319,885;  319,685
299,880;  324,117;  317,076;  318,325
299,967;  301,177;  296,345;  296,295
300,053;  297,478;  295,935;  299,065
300,140;  332,737;  323,086;  328,875
300,226;  318,378;  313,885;  313,595
300,312;  314,078;  307,276;  306,695
300,399;  309,478;  305,505;  308,465
300,485;  304,897;  297,776;  301,725
300,572;  282,978;  281,655;  281,655
300,658;  301,897;  297,216;  294,585
300,744;  314,217;  310,706;  311,315
300,831;  316,677;  313,595;  318,275
300,917;  322,258;  321,676;  320,915
301,004;  312,277;  311,556;  311,015
301,090;  283,997;  277,785;  280,095
301,176;  287,858;  284,255;  288,205
301,263;  315,418;  313,676;  314,925
301,349;  296,117;  289,475;  293,305
301,435;  287,277;  284,276;  285,095
301,521;  319,057;  314,625;  313,245
301,608;  313,717;  314,695;  315,515
301,694;  300,017;  297,896;  300,535
301,780;  303,138;  303,046;  298,285
301,867;  289,217;  280,836;  285,265
301,953;  308,737;  296,595;  301,165
302,039;  385,217;  295,116;  297,515
302,125;  534,237;  298,445;  304,125
302,211;  366,198;  332,926;  334,115
302,298;  350,617;  301,926;  305,295
302,384;  299,198;  281,116;  287,095
302,470;  297,378;  289,505;  291,305
302,556;  315,938;  301,935;  305,645
302,642;  302,638;  293,456;  295,155
302,729;  302,138;  289,306;  293,525
302,815;  317,198;  317,966;  319,775
302,901;  302,938;  296,475;  298,745
302,987;  313,918;  307,716;  308,245
303,073;  304,598;  304,185;  302,795
303,159;  302,938;  296,945;  298,695
303,245;  289,478;  284,336;  290,495
303,331;  288,897;  283,486;  286,455
303,417;  303,318;  294,556;  296,145
303,503;  307,717;  310,046;  312,155
303,590;  297,578;  289,146;  291,705
303,676;  303,797;  299,505;  300,385
303,762;  288,617;  287,185;  287,835
303,848;  315,277;  311,026;  312,055
303,934;  308,557;  304,915;  307,775
304,020;  308,658;  301,796;  304,745
304,106;  315,897;  309,975;  314,015
304,192;  301,638;  291,796;  296,765
304,278;  303,837;  302,896;  304,455
304,364;  332,858;  323,026;  324,755
304,450;  304,758;  301,496;  304,095
304,535;  304,797;  304,005;  304,245
304,621;  303,038;  301,565;  302,205
304,707;  309,497;  306,296;  307,635
304,793;  323,337;  318,625;  318,575
304,879;  312,938;  306,776;  310,585
304,965;  320,638;  312,845;  313,365
305,051;  311,758;  308,616;  311,355
305,137;  326,478;  318,146;  324,235
305,223;  292,737;  291,445;  293,725
305,309;  315,818;  313,496;  317,755
305,394;  313,717;  311,996;  311,465
305,480;  305,158;  299,426;  304,775
305,566;  309,438;  309,355;  310,525
305,652;  317,418;  313,605;  317,885
305,738;  353,017;  349,206;  353,435
305,824;  318,397;  316,016;  315,095
305,909;  327,478;  323,815;  325,155
305,995;  290,497;  289,595;  290,025
306,081;  353,997;  348,345;  350,435
306,167;  310,457;  303,966;  307,875
306,252;  327,638;  324,375;  325,505
306,338;  336,638;  331,366;  335,515
306,424;  307,878;  306,595;  307,415
306,510;  322,777;  316,105;  319,795
306,595;  327,658;  323,685;  322,125
306,681;  318,617;  316,926;  318,895
306,767;  311,217;  305,336;  309,425
306,852;  335,138;  328,255;  331,375
306,938;  331,698;  325,796;  325,905
307,024;  309,818;  302,875;  304,755
307,109;  339,098;  336,065;  338,965
307,195;  320,258;  316,326;  318,385
307,281;  322,677;  318,716;  318,575
307,366;  319,457;  313,345;  310,455
307,452;  320,057;  312,426;  316,335
307,537;  304,017;  296,776;  298,485
307,623;  297,418;  292,105;  296,985
307,709;  311,397;  309,885;  310,795
307,794;  295,938;  288,576;  291,835
307,880;  327,758;  320,236;  319,735
307,965;  308,237;  307,456;  307,525
308,051;  296,737;  297,195;  298,065
308,136;  301,017;  297,165;  296,745
308,222;  307,517;  300,366;  302,045
308,307;  299,978;  295,116;  296,645
308,393;  300,337;  295,535;  300,335
308,478;  320,578;  321,826;  318,975
308,564;  293,258;  295,516;  288,925
308,649;  311,758;  308,496;  308,295
308,735;  306,598;  294,155;  300,535
308,820;  326,358;  320,655;  319,455
308,906;  295,078;  291,625;  300,515
308,991;  343,198;  341,076;  338,375
309,076;  326,878;  319,336;  320,645
309,162;  285,818;  283,945;  283,805
309,247;  310,318;  309,945;  308,415
309,333;  297,997;  291,646;  297,855
309,418;  305,497;  298,665;  301,955
309,503;  301,397;  297,646;  300,235
309,589;  307,578;  303,725;  305,345
309,674;  294,997;  290,945;  289,235
309,759;  306,378;  303,315;  304,195
309,845;  316,478;  311,016;  312,415
309,930;  314,198;  305,966;  307,375
310,015;  281,938;  276,095;  276,835
310,101;  320,918;  315,616;  319,905
310,186;  287,078;  285,426;  288,565
310,271;  307,397;  297,296;  298,295
310,357;  300,457;  297,526;  296,455
310,442;  312,358;  302,445;  303,865
310,527;  302,378;  297,766;  301,125
310,612;  282,457;  278,195;  281,425
310,698;  326,217;  319,725;  321,135
310,783;  308,318;  301,176;  302,685
310,868;  295,918;  294,285;  295,125
310,953;  289,598;  284,165;  285,195
311,038;  313,617;  311,146;  310,075
311,124;  297,918;  294,635;  290,925
311,209;  281,758;  276,736;  277,355
311,294;  316,358;  310,206;  312,575
311,379;  283,318;  276,785;  277,345
311,464;  307,337;  297,405;  297,635
311,549;  290,737;  282,385;  284,505
311,634;  297,418;  290,396;  286,805
311,719;  322,497;  316,016;  315,415
311,805;  294,878;  289,266;  291,605
311,890;  304,638;  295,165;  295,925
311,975;  300,957;  281,526;  286,055
312,060;  312,797;  298,146;  302,435
312,145;  293,858;  277,586;  276,025
312,230;  318,418;  290,815;  296,495
312,315;  337,717;  294,065;  296,045
312,400;  407,538;  296,396;  299,795
312,485; 1546,998;  290,535;  292,475
312,570; 1278,177;  277,125;  279,615
312,655;  354,418;  308,176;  313,325
312,740;  332,098;  301,616;  302,005
312,825;  342,777;  304,105;  307,725
312,910;  360,777;  307,736;  309,235
312,995;  445,677;  296,236;  298,245
313,080; 1919,277;  285,655;  286,805
313,165; 2195,698;  303,565;  305,305
313,250;  369,358;  287,276;  287,825
313,335;  325,057;  307,435;  312,125
313,419;  280,978;  267,466;  268,635
313,504;  330,578;  313,355;  315,225
313,589;  310,158;  295,216;  297,545
313,674;  322,177;  307,206;  310,085
313,759;  295,457;  281,556;  282,625
313,844;  307,098;  292,776;  291,005
313,929;  301,957;  289,945;  291,695
314,014;  320,698;  313,306;  315,005
314,098;  307,418;  299,035;  300,425
314,183;  270,358;  263,505;  263,795
314,268;  304,438;  296,496;  298,955
314,353;  313,138;  302,026;  306,185
314,438;  315,217;  306,905;  311,515
314,522;  317,598;  309,486;  308,535
314,607;  312,098;  307,565;  307,855
314,692;  305,878;  301,885;  303,855
314,777;  298,237;  291,766;  292,395
314,861;  287,818;  277,285;  276,385
314,946;  315,098;  315,116;  317,565
315,031;  299,997;  291,875;  294,115
315,115;  309,358;  306,206;  308,065
315,200;  317,737;  312,146;  313,065
315,285;  295,038;  289,486;  289,595
315,369;  293,578;  287,945;  288,545
315,454;  318,177;  311,905;  311,025
315,539;  311,997;  310,246;  307,795
315,623;  312,237;  309,426;  313,225
315,708;  339,978;  335,605;  336,825
315,793;  303,177;  297,986;  298,155
315,877;  308,158;  302,975;  305,445
315,962;  296,797;  289,105;  291,925
316,046;  324,158;  317,065;  319,225
316,131;  337,378;  334,516;  337,215
316,216;  313,038;  310,315;  310,785
316,300;  302,297;  303,345;  302,165
316,385;  327,878;  325,315;  324,305
316,469;  332,717;  330,625;  331,955
316,554;  304,297;  296,005;  298,425
316,638;  300,557;  296,725;  301,565
316,723;  297,717;  292,546;  293,795
316,807;  301,658;  299,595;  299,275
316,892;  294,158;  288,975;  289,925
316,976;  318,138;  314,405;  316,505
317,061;  311,038;  306,035;  305,965
317,145;  326,837;  327,655;  325,965
317,230;  323,777;  321,505;  319,905
317,314;  276,677;  275,565;  275,085
317,398;  315,557;  310,706;  312,245
317,483;  290,337;  290,026;  291,085
317,567;  319,598;  315,326;  317,865
317,652;  288,698;  283,526;  286,625
317,736;  312,997;  308,776;  309,285
317,820;  334,098;  329,005;  334,665
317,905;  312,177;  306,706;  307,035
317,989;  297,737;  298,285;  300,875
318,073;  299,158;  298,076;  297,705
318,158;  293,737;  284,966;  285,565
318,242;  303,017;  296,845;  299,095
318,326;  290,358;  283,155;  284,015
318,411;  300,957;  295,125;  296,565
318,495;  286,878;  285,776;  287,165
318,579;  293,797;  288,746;  289,305
318,664;  283,878;  280,315;  284,255
318,748;  311,918;  305,996;  310,145
318,832;  291,818;  290,806;  289,475
318,916;  276,938;  274,785;  277,335
319,001;  299,918;  299,945;  301,485
319,085;  297,837;  292,885;  290,905
319,169;  297,677;  293,396;  294,485
319,253;  291,117;  287,216;  285,525
319,337;  304,358;  306,246;  304,885
319,422;  321,638;  316,125;  313,225
319,506;  288,138;  283,326;  285,905
319,590;  310,258;  303,915;  305,525
319,674;  299,578;  291,926;  295,405
319,758;  297,517;  295,165;  300,215
319,842;  310,497;  306,135;  309,155
319,926;  299,138;  294,815;  295,205
320,010;  270,517;  267,046;  269,575
320,095;  287,318;  280,926;  284,685
320,179;  285,478;  279,125;  281,175
320,263;  285,617;  277,385;  285,805
320,347;  276,138;  271,296;  279,075
320,431;  278,397;  273,435;  274,355
320,515;  301,797;  296,375;  299,935
320,599;  276,878;  269,866;  273,825
320,683;  308,378;  305,706;  305,495
320,767;  271,578;  266,236;  266,205
320,851;  287,918;  281,855;  287,785
320,935;  318,858;  312,565;  318,275
321,019;  296,658;  292,975;  290,075
321,103;  281,358;  278,135;  280,585
321,187;  276,918;  273,165;  273,265
321,271;  300,517;  294,616;  296,825
321,355;  282,258;  281,595;  283,805
321,439;  307,138;  301,216;  301,725
321,523;  281,617;  282,266;  284,705
321,606;  288,418;  287,426;  288,215
321,690;  292,117;  287,026;  288,215
321,774;  299,198;  288,336;  292,205
321,858;  296,758;  292,966;  291,945
321,942;  303,617;  294,276;  298,975
322,026;  288,297;  283,315;  282,695
322,110;  296,457;  293,146;  295,755
322,194;  300,418;  295,355;  301,055
322,277;  290,957;  286,135;  287,285
322,361;  281,098;  278,595;  281,215
322,445;  296,497;  289,315;  291,095
322,529;  301,057;  297,716;  299,645
322,613;  301,337;  297,206;  297,795
322,696;  276,277;  267,695;  272,865
322,780;  289,557;  283,026;  283,485
322,864;  284,638;  272,625;  279,835
322,948;  293,158;  292,326;  295,965
323,031;  284,737;  281,565;  282,215
323,115;  293,297;  284,586;  285,215
323,199;  298,297;  296,565;  299,105
323,282;  311,497;  307,496;  310,065
323,366;  287,098;  287,296;  293,625
323,450;  278,878;  273,496;  275,835
323,533;  320,418;  314,576;  317,415
323,617;  272,818;  268,695;  271,585
323,701;  293,337;  281,105;  283,575
323,784;  297,457;  292,576;  294,205
323,868;  299,017;  297,866;  299,875
323,952;  297,938;  290,966;  294,175
324,035;  311,997;  305,926;  310,825
324,119;  302,617;  295,466;  298,455
324,202;  294,117;  286,836;  292,745
324,286;  291,918;  284,986;  286,605
324,370;  293,737;  293,105;  296,765
324,453;  302,078;  299,616;  301,745
324,537;  298,698;  294,426;  298,035
324,620;  294,858;  286,635;  291,765
324,704;  272,938;  270,445;  276,525
324,787;  295,277;  294,875;  296,265
324,871;  316,538;  310,986;  315,255
324,954;  312,617;  312,246;  315,985
325,038;  315,297;  306,466;  306,985
325,121;  314,318;  308,695;  312,075
325,205;  294,078;  290,396;  293,295
325,288;  278,578;  279,556;  285,675
325,371;  307,598;  298,945;  302,395
325,455;  316,638;  314,026;  312,045
325,538;  289,177;  281,516;  287,185
325,622;  330,758;  320,806;  321,295
325,705;  298,117;  297,716;  298,675
325,788;  314,158;  313,625;  316,645
325,872;  304,658;  300,796;  300,745
325,955;  326,478;  319,845;  325,065
326,039;  310,978;  309,576;  312,795
326,122;  311,078;  310,746;  311,665
326,205;  318,358;  311,806;  310,235
326,289;  322,677;  313,986;  319,245
326,372;  298,858;  294,746;  299,195
326,455;  329,038;  323,095;  324,405
326,538;  320,978;  312,336;  316,545
326,622;  320,337;  318,396;  320,075
326,705;  296,318;  287,315;  287,875
326,788;  330,117;  321,266;  322,405
326,871;  322,297;  315,576;  317,965
326,955;  316,138;  313,836;  315,225
327,038;  315,258;  310,116;  310,855
327,121;  307,878;  301,516;  307,855
327,204;  321,997;  313,216;  314,045
327,288;  333,078;  328,956;  332,375
327,371;  294,997;  288,185;  296,955
327,454;  313,277;  313,065;  313,845
327,537;  305,198;  299,815;  302,435
327,620;  327,418;  322,935;  330,145
327,703;  315,258;  309,076;  310,615
327,786;  314,717;  311,076;  312,115
327,870;  327,538;  323,155;  328,715
327,953;  305,337;  301,155;  305,785
328,036;  302,758;  293,105;  299,035
328,119;  324,457;  317,576;  321,135
328,202;  307,698;  301,885;  305,875
328,285;  329,997;  326,776;  329,015
328,368;  327,938;  320,935;  322,625
328,451;  323,997;  320,635;  322,565
328,534;  311,038;  301,266;  307,075
328,617;  309,057;  305,676;  311,785
328,700;  334,517;  326,505;  326,695
328,783;  326,457;  320,785;  322,875
328,866;  318,538;  314,095;  319,935
328,949;  325,858;  319,966;  326,555
329,032;  300,617;  297,826;  300,605
329,115;  294,138;  290,905;  295,945
329,198;  286,117;  282,956;  283,785
329,281;  304,117;  299,336;  298,465
329,364;  318,397;  316,246;  319,245
329,447;  313,737;  307,176;  309,255
329,530;  331,938;  328,155;  328,175
329,613;  307,997;  300,565;  306,725
329,696;  334,598;  326,806;  330,715
329,778;  316,717;  311,306;  316,915
329,861;  296,797;  295,236;  299,565
329,944;  322,198;  321,685;  327,225
330,027;  312,638;  311,576;  315,115
330,110;  315,038;  307,595;  311,705
330,193;  301,677;  295,306;  299,955
330,275;  320,297;  312,296;  315,835
330,358;  298,358;  291,776;  296,185
330,441;  330,837;  323,586;  325,365
330,524;  306,957;  305,216;  311,095
330,607;  308,057;  304,345;  306,905
330,689;  314,078;  313,105;  314,535
330,772;  316,497;  311,105;  312,425
330,855;  324,598;  325,065;  327,855
330,938;  323,318;  312,315;  321,275
331,020;  316,177;  317,176;  320,535
331,103;  295,538;  293,035;  294,505
331,186;  312,897;  305,146;  307,085
331,268;  301,777;  293,565;  298,695
331,351;  317,617;  313,026;  316,455
331,434;  313,438;  308,385;  312,645
331,516;  321,698;  319,076;  321,185
331,599;  305,938;  297,095;  301,425
331,682;  315,717;  310,736;  310,985
331,764;  295,878;  293,326;  297,915
331,847;  323,758;  313,716;  315,705
331,929;  296,997;  290,026;  293,225
332,012;  313,397;  309,625;  310,055
332,095;  330,497;  323,306;  326,625
332,177;  327,598;  320,806;  324,285
332,260;  332,717;  327,526;  328,035
332,342;  313,017;  309,246;  314,445
332,425;  313,578;  312,516;  311,505
332,507;  312,117;  308,526;  311,575
332,590;  294,698;  287,595;  291,655
332,672;  298,297;  294,885;  298,455
332,755;  314,638;  306,855;  311,605
332,837;  310,078;  310,716;  312,255
332,920;  316,698;  309,076;  315,155
333,002;  329,057;  325,676;  328,895
333,085;  316,237;  313,375;  315,165
333,167;  301,438;  296,875;  298,575
333,249;  302,017;  294,526;  298,145
333,332;  298,117;  293,296;  297,715
333,414;  304,438;  300,035;  304,875
333,497;  307,598;  300,255;  302,305
333,579;  306,617;  300,996;  306,375
333,661;  322,258;  319,706;  320,745
333,744;  298,598;  293,695;  297,125
333,826;  312,198;  305,766;  306,065
333,908;  322,258;  313,896;  316,665
333,991;  308,277;  291,266;  291,545
334,073;  465,038;  312,706;  318,525
334,155;  366,957;  304,086;  305,525
334,238;  325,497;  318,576;  326,145
334,320;  304,318;  297,046;  300,585
334,402;  310,918;  302,996;  304,895
334,485;  307,198;  303,655;  304,015
334,567;  303,358;  299,776;  301,975
334,649;  284,777;  278,426;  282,925
334,731;  319,158;  313,456;  317,305
334,813;  325,698;  315,605;  320,355
334,896;  296,717;  290,185;  294,595
334,978;  312,017;  309,165;  302,585
335,060;  310,237;  304,255;  304,235
335,142;  303,038;  301,665;  302,275
335,224;  313,158;  309,766;  311,745
335,307;  299,497;  297,456;  298,965
335,389;  317,578;  310,385;  317,305
335,471;  308,457;  299,896;  306,115
335,553;  325,318;  319,866;  318,905
335,635;  316,138;  312,836;  315,315
335,717;  303,598;  298,195;  300,145
335,799;  327,038;  322,695;  323,585
335,881;  285,957;  278,385;  282,845
335,963;  299,138;  291,796;  293,005
336,045;  297,297;  295,516;  301,085
336,128;  275,957;  270,945;  275,225
336,210;  290,758;  288,996;  292,295
336,292;  301,938;  297,845;  300,615
336,374;  306,638;  300,956;  306,155
336,456;  291,938;  285,616;  288,495
336,538;  304,517;  303,165;  304,435
336,620;  315,337;  310,576;  312,205
336,702;  297,897;  294,766;  294,235
336,783;  306,578;  302,556;  304,225
336,865;  312,258;  304,176;  305,725
336,947;  314,358;  308,486;  311,205
337,029;  285,217;  281,826;  282,945
337,111;  318,418;  316,266;  316,735
337,193;  287,378;  280,986;  284,795
337,275;  314,658;  310,815;  314,535
337,357;  329,938;  318,815;  324,805
337,439;  306,478;  305,255;  310,655
337,521;  282,737;  277,225;  280,915
337,602;  300,038;  298,435;  301,085
337,684;  314,497;  315,635;  317,455
337,766;  316,658;  312,266;  312,305
337,848;  299,057;  295,086;  301,025
337,930;  302,397;  303,165;  306,525
338,012;  303,418;  298,586;  299,555
338,093;  318,918;  312,396;  315,895
338,175;  322,158;  318,195;  321,575
338,257;  311,938;  306,945;  309,225
338,339;  297,617;  294,086;  300,165
338,420;  315,017;  310,986;  310,895
338,502;  307,878;  298,836;  304,265
338,584;  293,617;  286,736;  289,235
338,666;  303,438;  303,426;  302,365
338,747;  332,217;  330,806;  334,875
338,829;  309,237;  309,176;  309,265
338,911;  299,517;  296,236;  298,915
338,992;  295,138;  295,746;  294,435
339,074;  309,318;  306,155;  307,855
339,156;  302,078;  298,176;  303,395
339,237;  330,337;  325,035;  327,765
339,319;  298,557;  294,935;  300,045
339,400;  311,098;  309,065;  311,225
339,482;  286,897;  278,165;  280,605
339,564;  317,397;  317,026;  316,575
339,645;  311,538;  304,595;  308,105
339,727;  299,737;  290,216;  294,375
339,808;  325,438;  317,685;  322,555
339,890;  306,497;  299,956;  302,415
339,971;  319,918;  307,016;  315,055
340,053;  340,358;  336,746;  335,255
340,134;  297,378;  296,535;  298,415
340,216;  328,098;  315,556;  319,645
340,297;  301,457;  298,396;  301,525
340,379;  319,277;  314,736;  316,975
340,460;  308,337;  306,685;  306,615
340,542;  301,217;  294,535;  297,775
340,623;  313,938;  307,926;  312,435
340,705;  299,478;  297,516;  295,795
340,786;  293,878;  289,685;  291,925
340,868;  306,997;  308,826;  304,055
340,949;  290,557;  285,605;  286,145
341,030;  330,478;  321,435;  328,715
341,112;  285,277;  280,565;  284,075
341,193;  276,098;  270,135;  273,595
341,274;  323,677;  322,176;  320,965
341,356;  325,557;  320,716;  321,795
341,437;  302,677;  301,635;  300,825
341,518;  312,557;  307,176;  314,795
341,600;  321,837;  320,866;  322,465
341,681;  331,878;  328,866;  332,375
341,762;  324,858;  325,206;  323,705
341,844;  289,078;  287,146;  292,185
341,925;  314,397;  308,225;  311,205
342,006;  324,658;  320,426;  323,055
342,087;  294,297;  288,095;  292,095
342,169;  312,297;  307,026;  309,845
342,250;  290,117;  286,935;  285,935
342,331;  305,198;  298,706;  299,075
342,412;  314,978;  307,655;  310,045
342,493;  296,258;  289,415;  293,325
342,575;  327,258;  327,095;  327,355
342,656;  320,818;  318,466;  318,265
342,737;  335,358;  329,836;  330,295
342,818;  308,918;  307,996;  309,015
342,899;  315,957;  314,505;  317,165
342,980;  312,337;  306,695;  310,155
343,061;  306,318;  303,065;  304,715
343,143;  324,598;  319,535;  319,565
343,224;  315,258;  306,706;  305,915
343,305;  302,918;  299,625;  303,115
343,386;  302,918;  297,996;  300,475
343,467;  307,717;  303,155;  305,535
343,548;  307,978;  304,176;  305,935
343,629;  318,318;  316,405;  317,625
343,710;  325,638;  322,766;  321,015
343,791;  323,638;  325,065;  327,935
343,872;  302,578;  298,975;  297,795
343,953;  317,777;  314,826;  316,625
344,034;  318,858;  319,475;  324,485
344,115;  312,658;  304,255;  303,425
344,196;  302,078;  298,935;  302,165
344,277;  299,578;  293,306;  294,615
344,358;  308,297;  304,755;  307,345
344,439;  295,878;  293,975;  294,205
344,520;  299,418;  298,546;  300,975
344,601;  314,897;  314,646;  315,525
344,681;  307,418;  302,426;  303,825
344,762;  291,138;  283,466;  287,625
344,843;  286,237;  275,996;  281,125
344,924;  303,038;  303,635;  306,085
345,005;  292,878;  287,176;  288,725
345,086;  314,878;  307,665;  309,725
345,167;  291,878;  293,986;  295,575
345,247;  332,217;  323,896;  328,905
345,328;  318,818;  315,315;  317,705
345,409;  314,837;  307,056;  309,355
345,490;  315,117;  308,415;  314,245
345,571;  309,777;  304,875;  312,045
345,651;  285,378;  279,456;  279,055
345,732;  309,858;  307,285;  312,275
345,813;  319,818;  311,836;  317,355
345,894;  290,358;  285,785;  287,595
345,974;  315,897;  309,556;  311,845
346,055;  301,038;  296,435;  295,735
346,136;  313,478;  304,405;  306,245
346,216;  322,478;  324,945;  328,565
346,297;  304,837;  306,565;  304,225
346,378;  294,158;  291,996;  294,005
346,458;  311,818;  307,375;  313,405
346,539;  305,438;  302,306;  305,975
346,620;  309,337;  305,815;  306,685
346,700;  287,378;  288,755;  289,765
346,781;  292,418;  284,556;  286,765
346,861;  306,397;  304,336;  307,325
346,942;  304,957;  304,336;  302,715
347,023;  322,897;  317,885;  316,005
347,103;  302,617;  297,396;  302,825
347,184;  305,318;  294,475;  296,785
347,264;  298,098;  294,565;  296,805
347,345;  293,438;  290,526;  295,525
347,425;  292,337;  285,125;  290,565
347,506;  284,617;  283,595;  283,195
347,586;  293,957;  289,725;  292,435
347,667;  308,777;  307,616;  304,445
347,747;  312,158;  311,116;  310,775
347,828;  301,538;  296,486;  296,465
347,908;  306,277;  303,306;  307,175
347,988;  301,818;  298,655;  306,125
348,069;  316,677;  311,056;  311,395
348,149;  306,957;  303,956;  309,065
348,230;  312,057;  309,956;  310,945
348,310;  283,318;  284,185;  285,715
348,390;  294,578;  288,526;  288,625
348,471;  301,638;  303,665;  305,125
348,551;  292,258;  290,695;  293,935
348,632;  291,538;  289,505;  294,065
348,712;  290,658;  292,706;  295,115
348,792;  329,598;  329,836;  329,985
348,873;  283,098;  281,905;  283,045
348,953;  292,638;  289,845;  290,395
349,033;  300,918;  297,466;  299,465
349,113;  288,057;  286,076;  286,905
349,194;  307,938;  301,595;  304,825
349,274;  309,117;  304,796;  307,395
349,354;  307,517;  303,046;  308,435
349,434;  307,797;  300,116;  301,925
349,515;  320,217;  316,486;  322,185
349,595;  305,777;  302,206;  302,035
349,675;  310,938;  305,635;  308,015
349,755;  300,858;  296,746;  297,615
349,835;  307,737;  301,195;  307,695
349,916;  301,598;  298,435;  303,915
349,996;  290,117;  291,105;  291,745
350,076;  316,277;  312,375;  317,645
350,156;  288,938;  284,836;  287,665
350,236;  315,777;  314,116;  311,925
350,316;  293,378;  292,975;  295,765
350,396;  307,517;  305,646;  310,065
350,476;  304,858;  301,826;  304,275
350,556;  299,777;  293,966;  299,935
350,637;  321,478;  321,005;  321,825
350,717;  290,737;  288,445;  291,825
350,797;  306,318;  302,616;  305,905
350,877;  296,797;  289,875;  294,705
350,957;  303,938;  297,635;  300,095
351,037;  300,797;  298,556;  303,455
351,117;  299,497;  296,276;  296,555
351,197;  306,978;  303,366;  306,305
351,277;  301,378;  300,556;  301,575
351,357;  314,258;  308,806;  314,445
351,437;  312,617;  306,105;  307,755
351,516;  320,397;  317,986;  318,355
351,596;  295,878;  292,896;  296,025
351,676;  292,897;  290,405;  294,265
351,756;  330,698;  323,426;  326,135
351,836;  319,698;  313,866;  317,935
351,916;  297,777;  297,905;  298,975
351,996;  303,938;  303,996;  305,265
352,076;  304,698;  303,486;  303,085
352,156;  321,818;  319,556;  320,405
352,235;  301,397;  301,255;  300,955
352,315;  311,837;  312,456;  314,415
352,395;  310,397;  308,206;  309,425
352,475;  316,997;  315,405;  320,955
352,555;  332,578;  330,236;  330,635
352,634;  327,117;  321,956;  326,705
352,714;  308,997;  302,595;  304,055
352,794;  351,638;  354,466;  358,075
352,874;  317,497;  314,685;  317,555
352,953;  346,078;  337,676;  339,095
353,033;  324,057;  319,306;  320,925
353,113;  337,158;  332,135;  336,575
353,193;  332,758;  328,046;  329,935
353,272;  334,177;  333,135;  334,365
353,352;  312,098;  307,035;  311,285
353,432;  349,318;  343,005;  347,495
353,511;  330,258;  326,185;  330,665
353,591;  366,538;  361,616;  362,555
353,671;  336,358;  331,926;  333,015
353,750;  333,638;  332,296;  331,275
353,830;  318,758;  313,646;  317,015
353,909;  344,237;  339,836;  343,655
353,989;  319,418;  317,385;  320,255
354,069;  321,938;  319,456;  319,155
354,148;  340,098;  335,035;  339,585
354,228;  319,438;  315,695;  316,905
354,307;  337,897;  329,405;  332,345
354,387;  326,277;  322,095;  322,965
354,466;  315,758;  311,635;  316,045
354,546;  344,017;  335,135;  337,645
354,625;  318,897;  319,815;  320,355
354,705;  324,918;  324,246;  326,865
354,784;  317,858;  316,445;  318,195
354,864;  321,497;  316,635;  317,385
354,943;  337,598;  333,695;  339,105
355,023;  311,358;  310,996;  312,285
355,102;  365,538;  362,866;  363,435
355,181;  318,837;  315,966;  318,045
355,261;  341,677;  338,056;  342,165
355,340;  309,237;  303,845;  307,115
355,420;  347,438;  340,105;  342,305
355,499;  329,057;  322,975;  325,635
355,578;  321,978;  315,276;  316,885
355,658;  333,277;  332,875;  333,745
355,737;  323,177;  317,576;  319,005
355,816;  328,818;  323,276;  324,605
355,896;  323,538;  316,026;  321,355
355,975;  308,818;  307,355;  310,055
356,054;  313,918;  311,935;  312,455
356,133;  295,457;  290,565;  293,305
356,213;  328,117;  324,845;  324,825
356,292;  309,797;  304,016;  309,325
356,371;  315,457;  314,146;  314,035
356,451;  327,997;  324,755;  327,685
356,530;  347,557;  349,496;  350,795
356,609;  320,358;  311,146;  315,535
356,688;  320,758;  316,475;  316,165
356,767;  309,777;  304,695;  309,855
356,846;  329,517;  327,035;  327,235
356,926;  347,598;  340,016;  343,965
357,005;  319,277;  318,345;  318,565
357,084;  310,098;  304,466;  308,385
357,163;  319,117;  317,706;  317,185
357,242;  319,737;  320,146;  319,515
357,321;  319,497;  314,496;  316,575
357,400;  316,878;  321,236;  318,865
357,479;  323,517;  317,725;  320,795
357,559;  326,277;  321,405;  325,705
357,638;  305,177;  300,616;  298,815
357,717;  318,237;  313,746;  311,555
357,796;  332,017;  329,266;  330,875
357,875;  318,638;  314,466;  313,455
357,954;  313,258;  310,155;  313,855
358,033;  325,717;  323,405;  320,935
358,112;  332,478;  329,966;  328,315
358,191;  321,478;  315,276;  318,965
358,270;  300,598;  295,505;  297,695
358,349;  323,737;  321,625;  323,725
358,428;  328,717;  322,445;  326,125
358,507;  326,737;  321,366;  325,105
358,585;  327,198;  320,355;  325,525
358,664;  336,277;  332,266;  334,505
358,743;  320,378;  323,776;  326,515
358,822;  337,057;  334,475;  338,195
358,901;  310,478;  309,176;  309,505
358,980;  313,098;  310,885;  313,735
359,059;  331,478;  328,616;  332,255
359,138;  331,438;  329,415;  328,565
359,216;  330,978;  322,225;  327,485
359,295;  310,457;  309,475;  309,515
359,374;  332,217;  330,026;  333,455
359,453;  323,638;  316,345;  320,885
359,532;  305,658;  304,526;  308,455
359,610;  324,818;  319,556;  323,285
359,689;  336,258;  331,116;  333,025
359,768;  319,658;  313,706;  315,305
359,847;  305,198;  302,065;  305,385
359,925;  309,578;  304,105;  307,215
360,004;  301,198;  299,565;  302,585
360,083;  318,578;  320,165;  321,795
360,161;  310,397;  305,676;  309,885
360,240;  291,138;  288,725;  291,455
360,319;  321,538;  318,276;  317,225
360,397;  334,117;  324,986;  331,265
360,476;  323,918;  318,296;  324,355
360,555;  351,497;  345,565;  346,835
360,633;  305,198;  304,456;  304,945
360,712;  313,237;  309,056;  311,825
360,790;  333,617;  330,065;  331,185
360,869;  313,638;  310,266;  313,085
360,948;  327,038;  322,466;  322,235
361,026;  301,337;  300,065;  301,245
361,105;  314,938;  306,116;  309,875
361,183;  326,297;  324,725;  326,345
361,262;  305,277;  302,375;  307,465
361,340;  309,237;  305,815;  306,875
361,419;  291,297;  289,896;  290,845
361,497;  345,198;  340,926;  346,955
361,576;  320,658;  317,736;  323,245
361,654;  345,957;  342,736;  343,615
361,733;  302,578;  297,366;  297,305
361,811;  329,418;  329,065;  331,875
361,890;  289,858;  292,595;  293,595
361,968;  315,057;  313,706;  316,715
362,046;  335,158;  335,296;  335,795
362,125;  343,878;  337,435;  340,865
362,203;  317,938;  314,635;  316,745
362,282;  334,758;  328,676;  334,675
362,360;  322,957;  318,315;  323,125
362,438;  317,117;  313,565;  317,495
362,517;  362,397;  357,725;  357,035
362,595;  341,038;  340,956;  345,025
362,673;  338,397;  334,576;  338,035
362,752;  332,078;  326,366;  329,445
362,830;  344,337;  343,155;  338,795
362,908;  321,938;  322,885;  326,315
362,986;  336,658;  333,595;  334,645
363,065;  334,258;  326,405;  330,985
363,143;  363,397;  359,875;  363,525
363,221;  321,478;  313,755;  319,675
363,299;  316,297;  315,845;  315,595
363,378;  328,617;  327,546;  328,495
363,456;  306,777;  304,326;  305,295
363,534;  334,517;  323,996;  327,895
363,612;  334,617;  327,546;  330,285
363,690;  342,638;  337,885;  341,915
363,769;  361,217;  349,336;  354,965
363,847;  337,858;  332,326;  333,935
363,925;  310,677;  303,095;  306,775
364,003;  354,758;  350,866;  351,845
364,081;  345,717;  336,345;  339,765
364,159;  334,057;  331,836;  334,695
364,237;  354,078;  341,276;  343,025
364,315;  331,358;  318,866;  320,765
364,393;  363,598;  350,935;  355,465
364,471;  344,557;  328,185;  329,975
364,549;  359,017;  333,026;  334,495
364,627;  363,098;  323,095;  327,065
364,705;  369,017;  311,135;  310,945
364,783;  440,997;  323,496;  332,235
364,861;  979,057;  331,396;  334,915
364,939; 3555,258;  314,086;  319,855
365,017;  802,357;  306,046;  310,735
365,095;  372,497;  322,116;  324,495
365,173;  380,138;  345,556;  349,605
365,251;  385,698;  341,535;  344,665
365,329;  527,838;  346,466;  345,195
365,407; 1149,978;  318,345;  321,385
365,485;  474,698;  344,826;  348,395
365,563;  369,837;  344,306;  346,815
365,641;  336,438;  331,896;  331,005
365,719;  347,258;  337,095;  336,965
365,796;  345,457;  334,926;  336,075
365,874;  356,538;  347,426;  349,165
365,952;  325,237;  309,516;  312,925
366,030;  347,598;  334,866;  333,525
366,108;  365,578;  326,345;  328,575
366,185;  616,638;  338,396;  343,695
366,263;  875,097;  334,646;  340,035
366,341;  384,578;  334,125;  339,925
366,419;  342,337;  331,535;  331,355
366,496;  350,258;  342,655;  345,225
366,574;  331,957;  325,826;  329,315
366,652;  355,358;  345,296;  349,635
366,730;  370,758;  365,475;  368,065
366,807;  336,997;  330,845;  334,945
366,885;  330,638;  321,135;  327,175
366,963;  338,138;  329,016;  331,635
367,040;  356,818;  345,815;  352,465
367,118;  333,557;  321,875;  325,205
367,196;  350,598;  341,896;  344,715
367,273;  339,117;  335,845;  338,245
367,351;  335,177;  328,155;  331,125
367,428;  361,038;  355,016;  356,915
367,506;  335,337;  329,225;  333,905
367,584;  370,258;  360,216;  363,085
367,661;  347,698;  341,785;  346,585
367,739;  339,617;  328,466;  334,835
367,816;  325,117;  320,345;  324,175
367,894;  345,358;  339,146;  345,755
367,971;  338,658;  329,885;  333,335
368,049;  353,277;  349,586;  353,435
368,126;  318,497;  314,625;  317,265
368,204;  350,797;  351,836;  352,775
368,281;  361,658;  353,225;  355,775
368,359;  352,258;  348,806;  354,965
368,436;  348,777;  342,385;  348,785
368,514;  352,758;  349,646;  351,035
368,591;  348,557;  343,486;  348,405
368,668;  353,098;  347,486;  351,455
368,746;  361,177;  358,556;  362,125
368,823;  344,237;  342,405;  345,515
368,901;  346,617;  339,046;  341,025
368,978;  365,378;  354,975;  361,925
369,055;  348,897;  343,826;  347,145
369,133;  373,198;  367,046;  368,725
369,210;  342,378;  339,206;  342,185
369,287;  373,517;  367,986;  371,205
369,365;  376,057;  368,896;  369,715
369,442;  354,878;  346,826;  351,135
369,519;  312,138;  306,396;  310,475
369,596;  379,737;  369,005;  372,695
369,674;  338,557;  336,526;  336,705
369,751;  370,918;  368,005;  369,405
369,828;  355,017;  350,366;  351,255
369,905;  360,818;  354,796;  358,705
369,983;  337,098;  329,826;  336,485
370,060;  333,198;  335,185;  336,165
370,137;  374,457;  371,595;  373,975
370,214;  343,617;  340,246;  340,845
370,291;  352,777;  347,845;  351,965
370,368;  353,117;  345,426;  349,675
370,446;  335,297;  335,716;  337,375
370,523;  334,918;  331,586;  338,615
370,600;  358,078;  350,706;  356,355
370,677;  351,878;  345,826;  349,525
370,754;  345,457;  341,706;  344,655
370,831;  351,658;  344,885;  347,665
370,908;  375,397;  368,556;  369,945
370,985;  326,818;  326,206;  327,885
371,062;  347,418;  346,635;  347,955
371,139;  364,217;  362,125;  364,815
371,216;  361,217;  357,496;  359,475
371,293;  354,677;  350,576;  350,305
371,370;  331,797;  328,806;  332,395
371,447;  356,578;  354,736;  355,835
371,524;  385,237;  374,685;  378,505
371,601;  376,698;  371,556;  374,285
371,678;  374,737;  374,306;  375,345
371,755;  352,297;  348,526;  348,275
371,832;  376,598;  374,526;  377,175
371,909;  345,918;  342,065;  344,605
371,986;  381,858;  376,505;  379,065
372,063;  350,177;  346,195;  348,745
372,140;  360,557;  354,056;  357,495
372,216;  366,818;  360,225;  360,935
372,293;  349,318;  341,945;  344,805
372,370;  375,297;  370,236;  372,635
372,447;  365,258;  361,646;  361,385
372,524;  357,337;  349,725;  352,115
372,601;  355,598;  353,236;  356,005
372,677;  341,397;  339,586;  339,035
372,754;  346,837;  347,516;  350,955
372,831;  360,217;  354,716;  356,955
372,908;  370,598;  368,496;  364,795
372,984;  358,098;  349,246;  356,035
373,061;  346,258;  342,046;  342,845
373,138;  350,957;  349,986;  354,465
373,215;  348,438;  345,155;  346,585
373,291;  351,978;  347,556;  353,415
373,368;  358,158;  353,516;  357,375
373,445;  353,938;  348,285;  348,395
373,521;  355,858;  349,216;  353,935
373,598;  344,418;  341,766;  343,845
373,675;  338,918;  332,646;  334,115
373,751;  354,497;  345,375;  354,195
373,828;  347,517;  341,076;  346,375
373,904;  398,918;  387,225;  391,935
373,981;  333,217;  332,516;  333,585
374,057;  357,497;  353,306;  355,945
374,134;  331,758;  331,706;  334,435
374,211;  352,897;  348,826;  351,835
374,287;  337,138;  338,565;  339,035
374,364;  370,777;  362,426;  365,335
374,440;  322,858;  319,035;  321,205
374,517;  361,858;  361,625;  366,995
374,593;  331,038;  326,896;  326,865
374,670;  343,858;  340,095;  342,905
374,746;  349,517;  346,915;  349,135
374,823;  374,397;  369,255;  368,775
374,899;  372,217;  366,836;  366,475
374,975;  342,557;  336,035;  341,495
375,052;  327,438;  319,776;  326,175
375,128;  330,378;  325,956;  331,675
375,205;  361,517;  353,665;  355,605
375,281;  336,457;  337,296;  336,395
375,357;  365,818;  361,026;  364,245
375,434;  338,957;  331,986;  338,045
375,510;  358,777;  347,755;  353,175
375,586;  352,318;  347,486;  349,845
375,663;  326,957;  321,926;  323,515
375,739;  354,737;  355,716;  358,675
375,815;  349,918;  346,366;  346,765
375,892;  351,717;  344,516;  348,555
375,968;  337,397;  331,605;  336,855
376,044;  346,258;  335,866;  339,405
376,120;  338,358;  332,535;  339,615
376,197;  356,598;  348,466;  352,185
376,273;  345,457;  340,516;  341,095
376,349;  384,717;  378,366;  379,125
376,425;  366,098;  362,935;  364,425
376,501;  353,478;  344,225;  347,555
376,578;  361,598;  362,885;  363,255
376,654;  385,438;  383,866;  382,945
376,730;  363,358;  360,266;  364,005
376,806;  376,397;  375,185;  376,845
376,882;  379,717;  377,176;  378,355
376,958;  379,538;  376,706;  373,325
377,034;  323,677;  319,695;  317,895
377,111;  373,957;  368,826;  369,285
377,187;  393,277;  390,845;  391,825
377,263;  385,337;  383,885;  384,725
377,339;  347,598;  341,445;  346,375
377,415;  366,957;  366,366;  365,685
377,491;  346,318;  342,885;  347,505
377,567;  362,038;  359,755;  360,685
377,643;  379,098;  380,076;  378,785
377,719;  372,737;  363,706;  367,845
377,795;  355,717;  345,725;  349,165
377,871;  372,438;  367,866;  370,355
377,947;  355,717;  348,236;  351,215
378,023;  350,997;  345,855;  349,075
378,099;  353,457;  349,035;  350,465
378,174;  375,098;  374,176;  374,825
378,250;  368,318;  363,105;  366,955
378,326;  370,938;  366,255;  370,045
378,402;  363,598;  357,685;  360,315
378,478;  363,038;  361,605;  365,295
378,554;  376,598;  370,396;  375,075
378,630;  364,818;  365,225;  365,285
378,706;  367,237;  358,076;  357,335
378,781;  397,677;  390,875;  394,875
378,857;  369,337;  363,185;  366,505
378,933;  370,457;  360,315;  365,855
379,009;  349,237;  351,426;  351,035
379,085;  395,598;  393,826;  391,725
379,160;  382,057;  377,246;  378,485
379,236;  377,638;  374,195;  376,655
379,312;  364,378;  359,915;  361,725
379,387;  361,057;  354,486;  355,105
379,463;  368,598;  359,836;  363,685
379,539;  378,057;  370,475;  373,395
379,615;  363,138;  359,056;  358,495
379,690;  403,557;  395,035;  398,755
379,766;  381,777;  373,276;  379,335
379,842;  394,457;  391,105;  391,375
379,917;  388,237;  380,935;  388,225
379,993;  372,358;  368,366;  373,385
380,068;  362,698;  359,236;  361,755
380,144;  386,677;  381,086;  383,405
380,220;  392,258;  382,086;  386,535
380,295;  358,418;  353,005;  355,035
380,371;  365,318;  359,935;  361,545
380,446;  383,598;  377,165;  381,125
380,522;  348,318;  348,766;  349,425
380,597;  363,138;  360,486;  359,965
380,673;  395,717;  390,456;  394,425
380,748;  363,258;  358,046;  358,445
380,824;  369,918;  367,676;  369,935
380,899;  391,758;  386,216;  388,425
380,975;  369,258;  365,475;  366,905
381,050;  354,598;  352,806;  352,825
381,126;  376,517;  370,526;  373,695
381,201;  404,478;  398,806;  402,495
381,277;  376,638;  373,435;  374,795
381,352;  392,237;  388,105;  390,855
381,427;  380,198;  372,586;  376,025
381,503;  385,677;  378,896;  379,385
381,578;  367,878;  360,605;  365,515
381,653;  371,057;  368,776;  372,375
381,729;  360,758;  361,535;  360,945
381,804;  374,117;  367,475;  368,805
381,879;  386,418;  383,306;  386,055
381,955;  359,517;  354,396;  356,545
382,030;  361,318;  356,556;  357,225
382,105;  375,057;  375,586;  372,555
382,181;  375,378;  367,466;  371,255
382,256;  375,737;  378,116;  374,765
382,331;  371,918;  367,216;  371,745
382,406;  358,297;  353,266;  357,745
382,482;  362,777;  361,315;  357,655
382,557;  365,918;  363,526;  366,745
382,632;  374,918;  370,595;  371,585
382,707;  365,517;  361,135;  365,615
382,782;  372,158;  361,516;  366,275
382,857;  361,658;  358,996;  361,035
382,933;  353,797;  351,776;  352,995
383,008;  346,318;  344,065;  345,165
383,083;  380,277;  376,866;  379,215
383,158;  380,397;  378,866;  381,615
383,233;  361,997;  362,385;  363,105
383,308;  364,978;  359,875;  362,675
383,383;  396,078;  389,445;  391,785
383,458;  363,918;  361,135;  360,475
383,533;  350,397;  342,456;  344,625
383,608;  390,638;  387,885;  390,385
383,683;  385,517;  385,046;  389,585
383,758;  384,078;  380,285;  380,925
383,833;  371,658;  370,296;  371,015
383,908;  345,217;  343,206;  342,165
383,983;  350,938;  346,296;  350,755
384,058;  359,957;  355,246;  357,655
384,133;  371,957;  368,185;  368,575
384,208;  376,677;  376,796;  379,565
384,283;  352,017;  348,736;  351,825
384,358;  384,897;  381,845;  387,485
384,433;  354,198;  357,496;  357,355
384,508;  371,897;  368,966;  373,895
384,583;  375,198;  373,725;  375,265
384,658;  375,557;  367,915;  371,275
384,732;  341,378;  339,456;  339,705
384,807;  370,478;  366,935;  369,005
384,882;  374,358;  371,246;  373,145
384,957;  372,617;  368,095;  371,985
385,032;  376,598;  375,426;  376,555
385,106;  373,397;  370,216;  371,515
385,181;  360,297;  351,385;  357,155
385,256;  366,758;  363,565;  366,745
385,331;  378,957;  371,935;  373,255
385,405;  384,717;  380,975;  381,445
385,480;  371,258;  365,695;  366,715
385,555;  405,818;  399,306;  400,405
385,630;  393,337;  390,956;  395,935
385,704;  379,457;  374,056;  377,105
385,779;  368,177;  364,405;  364,855
385,854;  371,138;  368,746;  369,975
385,928;  366,497;  363,016;  365,315
386,003;  403,617;  402,586;  405,115
386,078;  376,438;  372,466;  374,995
386,152;  409,638;  401,456;  401,815
386,227;  363,457;  357,646;  361,225
386,301;  386,277;  378,725;  380,385
386,376;  357,198;  348,695;  355,015
386,450;  382,078;  378,616;  381,145
386,525;  381,158;  373,556;  377,655
386,600;  392,277;  385,746;  385,925
386,674;  366,237;  364,076;  367,315
386,749;  381,237;  375,095;  381,315
386,823;  383,318;  377,435;  382,095
386,898;  382,878;  379,766;  380,535
386,972;  389,557;  380,966;  385,985
387,047;  376,777;  369,776;  374,355
387,121;  386,258;  379,695;  380,335
387,195;  362,698;  357,875;  359,895
387,270;  392,378;  385,625;  385,415
387,344;  409,638;  404,405;  407,055
387,419;  392,038;  385,665;  393,195
387,493;  380,957;  377,776;  379,825
387,567;  357,878;  355,005;  358,475
387,642;  406,837;  403,586;  405,945
387,716;  375,658;  369,565;  372,245
387,790;  371,177;  367,706;  371,225
387,865;  376,997;  372,806;  373,715
387,939;  407,557;  403,005;  404,415
388,013;  391,517;  384,806;  386,145
388,088;  374,217;  368,655;  370,085
388,162;  377,638;  370,135;  371,835
388,236;  372,797;  372,456;  375,275
388,310;  366,038;  361,966;  364,475
388,385;  404,758;  397,185;  400,845
388,459;  379,878;  379,996;  380,235
388,533;  366,478;  363,676;  362,565
388,607;  370,318;  366,776;  365,955
388,682;  378,217;  374,806;  375,745
388,756;  358,337;  355,035;  360,825
388,830;  395,617;  390,255;  394,075
388,904;  389,438;  378,276;  385,365
388,978;  372,378;  369,535;  370,165
389,052;  377,177;  375,396;  377,225
389,126;  378,737;  370,435;  376,195
389,200;  376,237;  372,665;  377,205
389,275;  369,078;  369,266;  367,695
389,349;  380,578;  374,695;  373,065
389,423;  370,538;  369,565;  369,375
389,497;  383,918;  380,966;  383,775
389,571;  369,698;  368,665;  370,175
389,645;  380,337;  376,806;  379,805
389,719;  376,497;  369,396;  372,955
389,793;  345,158;  346,576;  348,725
389,867;  401,158;  398,035;  402,955
389,941;  376,897;  375,375;  377,215
390,015;  368,438;  361,135;  364,515
390,089;  361,478;  360,426;  362,085
390,163;  381,198;  372,456;  375,935
390,237;  379,957;  375,435;  379,295
390,310;  384,457;  379,276;  382,155
390,384;  386,497;  376,546;  383,625
390,458;  408,177;  400,826;  403,825
390,532;  391,978;  383,496;  386,725
390,606;  373,158;  365,945;  369,265
390,680;  374,517;  366,466;  368,115
390,754;  367,938;  366,385;  368,915
390,827;  397,777;  388,276;  392,645
390,901;  396,777;  391,855;  396,215
390,975;  377,598;  368,905;  370,295
391,049;  370,497;  366,366;  364,315
391,123;  362,318;  362,685;  363,545
391,196;  367,717;  367,635;  367,855
391,270;  381,277;  378,426;  377,835
391,344;  361,378;  360,056;  359,585
391,418;  376,938;  372,975;  372,155
391,491;  363,138;  362,655;  363,995
391,565;  371,478;  362,065;  366,105
391,639;  398,878;  394,345;  397,875
391,712;  388,318;  385,815;  384,375
391,786;  388,978;  382,646;  386,785
391,860;  374,397;  369,385;  370,925
391,933;  382,217;  369,935;  371,115
392,007;  382,978;  371,355;  380,875
392,081;  401,457;  396,456;  399,955
392,154;  383,878;  377,845;  383,895
392,228;  395,337;  391,366;  394,685
392,301;  383,938;  376,266;  381,275
392,375;  392,478;  386,076;  389,995
392,448;  382,378;  379,516;  384,445
392,522;  379,617;  376,236;  379,965
392,595;  378,217;  370,105;  374,245
392,669;  380,078;  376,116;  379,675
392,742;  402,258;  390,975;  396,915
392,816;  398,557;  397,296;  400,205
392,889;  396,897;  392,746;  396,605
392,963;  409,858;  409,095;  409,745
393,036;  389,818;  385,345;  386,785
393,110;  396,897;  391,155;  393,885
393,183;  406,777;  400,836;  405,685
393,257;  419,938;  415,456;  417,745
393,330;  371,138;  365,845;  369,745
393,403;  393,098;  390,486;  395,585
393,477;  362,438;  355,845;  358,875
393,550;  397,858;  390,306;  395,545
393,623;  390,517;  388,396;  388,295
393,697;  411,378;  406,056;  406,835
393,770;  379,457;  376,556;  379,065
393,843;  409,997;  402,996;  406,915
393,917;  399,277;  394,216;  398,485
393,990;  418,918;  409,996;  410,125
394,063;  396,997;  386,855;  392,225
394,136;  394,717;  388,635;  391,675
394,210;  399,698;  393,336;  395,655
394,283;  409,818;  402,785;  407,175
394,356;  398,957;  399,165;  399,175
394,429;  400,658;  396,935;  398,825
394,502;  388,337;  382,016;  383,895
394,576;  420,957;  414,125;  414,715
394,649;  383,418;  378,776;  377,865
394,722;  410,758;  400,896;  403,785
394,795;  411,918;  408,306;  413,185
394,868;  389,638;  384,135;  385,985
394,941;  378,117;  376,435;  375,265
395,014;  421,397;  417,056;  420,205
395,088;  400,978;  398,956;  399,175
395,161;  396,198;  395,466;  398,685
395,234;  412,897;  409,236;  410,735
395,307;  403,258;  402,236;  405,525
395,380;  390,277;  384,736;  385,325
395,453;  436,717;  436,845;  437,285
395,526;  414,538;  408,385;  412,495
395,599;  434,858;  426,926;  430,645
395,672;  401,837;  394,586;  394,895
395,745;  416,478;  417,125;  421,075
395,818;  382,017;  376,306;  378,615
395,891;  388,457;  385,635;  387,695
395,964;  416,957;  415,896;  414,885
396,036;  386,158;  387,486;  384,175
396,109;  401,758;  392,076;  395,785
396,182;  399,198;  396,766;  399,545
396,255;  403,117;  399,225;  398,845
396,328;  414,017;  410,065;  411,075
396,401;  373,758;  370,746;  371,295
396,474;  387,978;  381,086;  381,505
396,547;  407,117;  397,046;  400,645
396,619;  391,638;  390,755;  390,525
396,692;  413,337;  404,866;  411,355
396,765;  374,638;  370,616;  372,985
396,838;  392,017;  388,225;  388,295
396,911;  378,277;  371,266;  373,155
396,983;  393,158;  392,496;  392,385
397,056;  373,737;  372,355;  374,095
397,129;  391,358;  387,796;  389,615
397,201;  390,177;  391,556;  389,605
397,274;  394,598;  385,366;  389,335
397,347;  368,098;  363,345;  363,665
397,420;  388,517;  384,605;  387,195
397,492;  393,378;  388,296;  388,685
397,565;  378,038;  375,915;  379,595
397,637;  368,337;  369,366;  372,085
397,710;  351,938;  351,586;  350,295
397,783;  418,078;  412,855;  414,805
397,855;  346,078;  345,345;  347,055
397,928;  376,858;  368,336;  371,095
398,000;  398,517;  395,866;  396,635
398,073;  387,497;  386,546;  384,745
398,146;  379,297;  376,706;  377,295
398,218;  397,117;  390,255;  393,135
398,291;  391,878;  385,806;  387,915
398,363;  383,158;  381,755;  384,505
398,436;  373,098;  369,855;  374,675
398,508;  384,138;  383,266;  385,345
398,581;  380,117;  378,206;  380,565
398,653;  374,038;  374,255;  373,825
398,726;  382,758;  378,535;  383,385
398,798;  389,698;  383,306;  387,885
398,870;  394,858;  391,116;  396,905
398,943;  374,378;  366,236;  369,775
399,015;  367,737;  365,676;  368,815
399,088;  389,177;  389,655;  388,435
399,160;  369,138;  368,076;  368,815
399,232;  352,497;  350,405;  352,095
399,305;  369,198;  368,435;  372,935
399,377;  381,638;  377,905;  377,535
399,449;  386,337;  386,246;  388,735
399,522;  427,158;  421,875;  424,965
399,594;  369,638;  364,576;  365,315
399,666;  385,777;  382,625;  385,235
399,738;  378,478;  373,336;  375,225
399,811;  379,078;  376,736;  377,025
399,883;  390,938;  386,105;  388,295
399,955;  393,538;  389,855;  389,195
400,027;  352,938;  345,945;  349,545
400,100;  410,858;  407,366;  409,275
400,172;  349,198;  348,296;  349,645
400,244;  381,017;  378,225;  381,195
400,316;  397,337;  393,016;  393,505
400,388;  396,017;  389,385;  393,005
400,460;  366,938;  359,306;  364,605
400,532;  352,098;  350,826;  351,835
400,605;  380,717;  377,736;  384,975
400,677;  406,397;  402,285;  404,675
400,749;  400,638;  395,685;  398,125
400,821;  384,598;  385,956;  388,105
400,893;  380,378;  379,445;  382,305
400,965;  395,658;  386,755;  392,785
401,037;  388,717;  387,565;  392,525
401,109;  372,438;  370,725;  373,835
401,181;  383,797;  380,716;  385,485

