pru
Integration time [ms]:   0,150
Averaging Nr. [scans]: 50
Smoothing Nr. [pixels]: 0
Data measured with spectrometer [name]: 7416147SP
Wave   ;Sample   ;Dark     ;Reference
[nm]   ;[counts] ;[counts] ;[counts] 

230,218;  290,168;  290,315;  293,845
230,311;  315,509;  319,885;  318,565
230,404;  310,569;  309,855;  312,875
230,497;  318,268;  317,385;  315,715
230,591;  335,629;  333,426;  335,355
230,684;  327,289;  326,486;  329,355
230,777;  314,749;  311,736;  314,765
230,870;  318,789;  313,326;  316,955
230,964;  310,909;  310,885;  314,745
231,057;  340,569;  342,496;  343,475
231,150;  334,228;  331,695;  332,715
231,243;  334,448;  330,635;  332,775
231,336;  332,868;  331,375;  331,335
231,430;  317,789;  316,496;  317,715
231,523;  328,689;  324,516;  326,785
231,616;  313,708;  305,445;  309,685
231,709;  341,928;  328,065;  330,025
231,802;  312,168;  300,945;  301,885
231,895;  315,708;  299,836;  300,315
231,988;  328,289;  315,655;  318,535
232,082;  310,809;  298,155;  302,425
232,175;  317,148;  302,155;  306,175
232,268;  315,629;  301,266;  305,345
232,361;  315,948;  304,806;  307,515
232,454;  334,909;  322,396;  323,025
232,547;  327,189;  318,716;  322,655
232,640;  308,608;  296,766;  294,035
232,733;  334,129;  314,116;  323,045
232,826;  300,529;  288,915;  295,035
232,919;  324,448;  313,826;  312,665
233,012;  308,909;  293,646;  292,775
233,105;  309,909;  294,766;  298,815
233,199;  317,529;  299,875;  304,045
233,292;  309,668;  293,475;  296,235
233,385;  274,108;  263,426;  262,225
233,478;  306,168;  293,885;  295,685
233,571;  337,129;  324,586;  327,675
233,664;  319,129;  305,996;  308,435
233,757;  292,988;  280,796;  281,395
233,850;  297,488;  282,255;  285,825
233,943;  305,089;  290,896;  292,195
234,035;  319,249;  300,576;  302,355
234,128;  297,129;  281,836;  283,945
234,221;  309,888;  297,665;  298,245
234,314;  320,509;  304,915;  311,975
234,407;  322,189;  302,935;  309,075
234,500;  292,849;  277,625;  281,875
234,593;  302,928;  287,095;  285,735
234,686;  309,228;  293,746;  293,765
234,779;  305,069;  291,266;  293,165
234,872;  297,189;  281,806;  281,565
234,965;  300,529;  292,806;  290,795
235,058;  289,228;  274,155;  276,215
235,150;  303,069;  285,776;  290,805
235,243;  300,409;  282,736;  284,425
235,336;  317,608;  300,695;  304,545
235,429;  284,689;  273,646;  272,515
235,522;  346,249;  330,996;  335,445
235,615;  277,189;  262,276;  265,145
235,707;  295,469;  282,415;  282,335
235,800;  299,428;  289,815;  290,515
235,893;  300,529;  289,956;  292,955
235,986;  311,488;  298,266;  299,325
236,079;  300,108;  286,586;  291,125
236,171;  287,849;  270,725;  271,865
236,264;  325,689;  312,635;  313,275
236,357;  304,509;  290,986;  293,865
236,450;  324,509;  315,225;  317,215
236,542;  281,608;  267,065;  272,575
236,635;  322,148;  313,546;  316,385
236,728;  298,368;  285,516;  288,115
236,821;  295,629;  280,165;  283,715
236,913;  285,309;  277,896;  276,315
237,006;  282,668;  271,605;  275,435
237,099;  303,569;  283,896;  285,575
237,191;  320,249;  298,796;  300,225
237,284;  285,208;  267,896;  272,995
237,377;  308,548;  294,725;  297,495
237,470;  300,349;  285,415;  287,875
237,562;  291,728;  276,866;  275,785
237,655;  333,309;  320,945;  324,565
237,747;  307,589;  292,695;  295,845
237,840;  329,948;  313,086;  314,435
237,933;  315,228;  300,445;  301,555
238,025;  310,388;  301,415;  301,595
238,118;  299,249;  282,456;  287,755
238,211;  285,448;  268,155;  272,375
238,303;  284,009;  272,296;  273,415
238,396;  279,849;  268,065;  271,945
238,488;  304,069;  292,625;  291,075
238,581;  298,488;  287,855;  289,445
238,673;  302,368;  285,766;  286,865
238,766;  297,948;  282,635;  283,185
238,859;  290,749;  273,586;  276,105
238,951;  294,608;  281,095;  282,835
239,044;  288,868;  276,496;  279,525
239,136;  280,828;  269,035;  271,705
239,229;  295,828;  280,665;  283,435
239,321;  288,668;  271,255;  276,105
239,414;  304,708;  289,875;  292,345
239,506;  298,789;  284,625;  290,655
239,599;  331,849;  316,315;  315,935
239,691;  300,849;  287,945;  287,755
239,784;  318,849;  301,926;  304,175
239,876;  312,868;  295,005;  294,715
239,969;  299,809;  284,426;  288,635
240,061;  283,249;  269,505;  272,655
240,153;  295,988;  276,776;  278,405
240,246;  303,749;  287,635;  287,925
240,338;  331,868;  315,285;  314,405
240,431;  281,089;  268,896;  270,455
240,523;  279,548;  269,315;  270,665
240,615;  319,409;  299,086;  301,495
240,708;  324,728;  309,945;  312,145
240,800;  298,168;  286,956;  289,175
240,893;  287,189;  272,216;  274,965
240,985;  308,129;  286,116;  289,995
241,077;  279,249;  269,866;  271,905
241,170;  314,009;  300,355;  300,805
241,262;  306,069;  293,695;  290,825
241,354;  271,208;  252,305;  253,985
241,447;  296,928;  281,326;  283,905
241,539;  284,208;  266,746;  270,745
241,631;  329,948;  314,366;  317,275
241,724;  279,668;  259,135;  260,655
241,816;  297,909;  279,385;  281,545
241,908;  294,428;  275,056;  280,445
242,000;  287,608;  277,625;  279,505
242,093;  295,969;  277,725;  280,745
242,185;  294,409;  277,736;  277,535
242,277;  287,268;  274,695;  277,115
242,369;  301,309;  282,146;  286,335
242,462;  287,988;  274,405;  274,215
242,554;  292,689;  277,146;  281,105
242,646;  300,069;  283,146;  286,575
242,738;  319,768;  303,255;  307,195
242,830;  277,469;  259,026;  260,415
242,923;  310,868;  297,035;  299,015
243,015;  286,689;  268,655;  266,675
243,107;  289,129;  267,676;  271,255
243,199;  288,828;  276,345;  278,365
243,291;  290,148;  272,125;  276,215
243,383;  270,809;  254,826;  256,465
243,476;  280,728;  269,435;  268,005
243,568;  302,988;  280,915;  284,885
243,660;  288,428;  273,385;  279,575
243,752;  299,309;  279,796;  287,275
243,844;  311,988;  300,766;  302,705
243,936;  302,409;  291,956;  293,555
244,028;  321,029;  304,796;  307,475
244,120;  266,548;  254,346;  255,525
244,212;  303,349;  293,826;  293,755
244,305;  276,548;  268,496;  267,935
244,397;  303,069;  289,165;  291,675
244,489;  317,509;  304,276;  307,925
244,581;  312,909;  299,255;  300,795
244,673;  297,849;  281,806;  283,225
244,765;  301,349;  286,035;  290,565
244,857;  301,309;  284,986;  287,335
244,949;  300,168;  283,956;  284,945
245,041;  266,249;  250,865;  255,005
245,133;  314,988;  293,695;  296,625
245,225;  288,129;  277,915;  280,695
245,317;  300,749;  289,456;  289,025
245,409;  279,728;  263,755;  269,375
245,501;  302,708;  288,496;  293,045
245,593;  301,689;  286,255;  290,055
245,685;  297,029;  285,405;  288,735
245,776;  299,589;  285,945;  287,235
245,868;  278,809;  271,276;  272,565
245,960;  273,629;  265,875;  263,405
246,052;  318,648;  310,766;  310,445
246,144;  311,328;  294,165;  294,205
246,236;  295,589;  283,576;  283,565
246,328;  300,409;  291,345;  293,965
246,420;  290,368;  279,746;  280,855
246,512;  324,048;  308,236;  310,455
246,604;  295,569;  282,526;  286,825
246,695;  279,509;  273,345;  272,135
246,787;  309,289;  293,526;  301,145
246,879;  306,168;  292,716;  297,145
246,971;  309,608;  299,276;  300,965
247,063;  291,029;  273,255;  278,605
247,155;  309,849;  294,516;  297,195
247,246;  294,289;  283,266;  283,715
247,338;  301,629;  288,116;  294,265
247,430;  318,148;  299,945;  303,475
247,522;  310,309;  297,546;  300,555
247,613;  311,868;  296,586;  299,675
247,705;  308,629;  286,896;  288,445
247,797;  324,368;  305,776;  307,475
247,889;  318,168;  294,706;  295,475
247,980;  317,129;  285,676;  291,995
248,072;  327,189;  282,845;  285,895
248,164;  347,448;  293,216;  298,385
248,256;  301,768;  271,366;  274,105
248,347;  322,888;  309,785;  311,065
248,439;  299,328;  283,165;  282,675
248,531;  317,388;  303,885;  304,835
248,622;  319,368;  307,206;  308,325
248,714;  292,668;  276,945;  278,365
248,806;  308,648;  293,655;  298,015
248,897;  304,768;  291,535;  292,985
248,989;  280,749;  263,956;  263,855
249,081;  295,668;  283,355;  284,905
249,172;  310,969;  289,926;  295,135
249,264;  286,768;  272,076;  273,435
249,356;  284,768;  269,326;  273,745
249,447;  303,148;  282,176;  284,525
249,539;  299,349;  283,086;  284,645
249,630;  306,448;  289,875;  288,495
249,722;  331,129;  313,276;  315,395
249,813;  298,548;  280,496;  284,125
249,905;  306,148;  289,426;  293,665
249,997;  299,948;  281,445;  280,615
250,088;  299,309;  282,255;  288,985
250,180;  305,569;  283,695;  284,575
250,271;  295,249;  281,195;  280,335
250,363;  338,828;  319,105;  320,755
250,454;  292,488;  273,035;  275,615
250,546;  308,749;  285,926;  289,415
250,637;  281,969;  264,445;  261,845
250,729;  289,988;  266,505;  269,555
250,820;  311,948;  289,915;  292,965
250,912;  285,208;  262,355;  267,085
251,003;  300,249;  278,396;  280,475
251,095;  303,629;  282,086;  284,555
251,186;  293,888;  271,415;  274,775
251,277;  298,589;  271,986;  275,265
251,369;  304,589;  275,975;  275,105
251,460;  298,589;  271,456;  273,815
251,552;  309,589;  278,475;  279,655
251,643;  301,249;  268,796;  267,375
251,735;  305,069;  265,246;  267,375
251,826;  297,448;  258,016;  263,245
251,917;  324,668;  278,035;  279,115
252,009;  322,589;  273,396;  275,605
252,100;  331,249;  281,426;  283,345
252,191;  349,589;  289,996;  292,015
252,283;  343,069;  265,095;  267,705
252,374;  370,768;  278,296;  278,375
252,465;  395,689;  295,405;  298,605
252,557;  387,629;  283,576;  286,365
252,648;  385,268;  265,146;  268,635
252,739;  418,868;  280,516;  282,125
252,831;  421,529;  270,836;  280,355
252,922;  457,208;  282,296;  280,045
253,013;  500,988;  273,956;  284,285
253,104;  555,729;  270,076;  270,335
253,196;  656,648;  271,366;  271,175
253,287;  810,148;  281,836;  277,135
253,378; 1176,129;  276,276;  277,975
253,469; 3728,588;  272,385;  276,445
253,561;20601,648;  273,496;  278,855
253,652;40489,910;  282,266;  280,015
253,743; 6556,369;  276,216;  280,985
253,834;  612,628;  259,146;  265,875
253,926;  496,189;  262,605;  267,485
254,017;  475,289;  284,236;  290,235
254,108;  446,728;  291,836;  290,565
254,199;  419,328;  285,326;  291,185
254,290;  434,529;  312,725;  313,865
254,381;  407,529;  287,076;  291,155
254,472;  413,388;  291,935;  300,495
254,564;  407,328;  312,766;  307,565
254,655;  387,668;  304,755;  308,105
254,746;  341,349;  264,896;  264,025
254,837;  379,469;  293,105;  298,435
254,928;  356,589;  266,836;  271,975
255,019;  365,168;  283,505;  286,805
255,110;  364,888;  300,165;  301,665
255,201;  346,009;  281,155;  287,655
255,292;  375,888;  312,706;  316,275
255,383;  346,168;  275,785;  275,725
255,474;  337,828;  273,306;  273,095
255,566;  350,268;  283,926;  286,645
255,657;  346,189;  298,556;  302,445
255,748;  309,629;  271,415;  278,125
255,839;  314,388;  280,695;  282,485
255,930;  327,168;  287,866;  289,735
256,021;  333,768;  298,845;  298,115
256,112;  312,868;  278,456;  278,735
256,203;  344,868;  311,866;  313,365
256,294;  329,048;  293,496;  299,575
256,384;  304,728;  270,565;  275,715
256,475;  315,749;  290,996;  294,595
256,566;  305,888;  281,246;  287,825
256,657;  297,268;  278,945;  278,915
256,748;  298,129;  281,285;  284,675
256,839;  294,388;  274,426;  273,555
256,930;  298,888;  279,165;  283,055
257,021;  322,548;  304,155;  306,465
257,112;  324,069;  304,926;  309,235
257,203;  274,309;  258,445;  259,825
257,294;  275,529;  254,465;  262,175
257,385;  303,768;  288,526;  294,205
257,475;  290,948;  279,135;  278,545
257,566;  305,749;  287,586;  292,255
257,657;  286,228;  269,595;  270,025
257,748;  288,289;  275,935;  276,095
257,839;  298,849;  287,915;  286,025
257,930;  300,388;  285,736;  290,395
258,020;  284,069;  269,716;  271,535
258,111;  281,249;  262,225;  263,255
258,202;  301,509;  288,326;  289,935
258,293;  296,728;  284,655;  285,305
258,384;  316,909;  305,595;  307,665
258,474;  299,648;  288,676;  291,995
258,565;  277,488;  271,635;  273,435
258,656;  304,029;  292,966;  295,145
258,747;  283,789;  271,475;  275,425
258,837;  284,509;  274,246;  273,695
258,928;  290,668;  275,785;  278,605
259,019;  281,548;  268,415;  270,595
259,109;  281,809;  269,685;  269,425
259,200;  297,228;  286,105;  289,815
259,291;  280,948;  269,975;  271,655
259,381;  302,069;  293,026;  295,635
259,472;  302,689;  295,796;  296,545
259,563;  311,589;  303,065;  305,845
259,653;  286,668;  278,296;  281,385
259,744;  275,268;  268,826;  267,735
259,835;  310,029;  300,975;  302,815
259,925;  283,768;  271,505;  277,075
260,016;  297,708;  286,746;  287,585
260,107;  269,529;  258,035;  264,715
260,197;  296,168;  283,975;  286,325
260,288;  286,268;  274,565;  279,155
260,378;  275,388;  267,195;  271,275
260,469;  298,428;  285,915;  288,765
260,560;  280,888;  266,146;  269,495
260,650;  279,849;  271,736;  275,665
260,741;  285,629;  276,366;  279,035
260,831;  281,268;  272,855;  275,905
260,922;  272,249;  266,206;  269,545
261,012;  277,888;  277,665;  278,255
261,103;  309,189;  301,785;  302,875
261,193;  310,368;  302,086;  303,915
261,284;  277,249;  271,806;  273,005
261,374;  310,309;  296,385;  303,855
261,465;  293,268;  287,755;  289,435
261,555;  281,689;  282,255;  280,715
261,646;  297,168;  292,475;  294,375
261,736;  293,108;  287,435;  290,535
261,827;  290,168;  283,716;  284,935
261,917;  317,469;  311,736;  311,595
262,007;  290,328;  283,986;  288,075
262,098;  293,029;  289,445;  287,725
262,188;  335,569;  326,655;  333,475
262,279;  306,488;  300,185;  299,795
262,369;  293,548;  286,285;  289,225
262,459;  297,309;  288,246;  290,365
262,550;  307,228;  303,266;  301,565
262,640;  281,988;  273,005;  276,555
262,731;  301,809;  300,935;  299,335
262,821;  318,108;  310,535;  312,255
262,911;  304,569;  297,875;  298,285
263,002;  295,148;  289,625;  290,825
263,092;  308,849;  303,956;  306,295
263,182;  288,048;  284,806;  285,755
263,273;  291,129;  285,426;  289,395
263,363;  301,569;  300,746;  299,385
263,453;  272,708;  267,375;  268,605
263,543;  295,849;  289,815;  289,615
263,634;  268,749;  266,516;  266,365
263,724;  294,488;  292,586;  293,065
263,814;  314,249;  308,706;  308,885
263,904;  287,589;  281,966;  285,905
263,995;  328,668;  322,276;  322,325
264,085;  300,789;  295,855;  294,575
264,175;  300,668;  296,706;  296,385
264,265;  321,409;  321,105;  321,865
264,356;  276,009;  270,466;  274,385
264,446;  314,789;  308,996;  307,575
264,536;  299,708;  294,026;  297,515
264,626;  325,849;  318,486;  320,175
264,716;  305,148;  298,435;  303,275
264,806;  317,569;  308,776;  310,415
264,897;  257,428;  258,135;  258,615
264,987;  315,789;  303,535;  304,475
265,077;  312,789;  287,046;  292,545
265,167;  372,488;  310,216;  311,575
265,257;  331,988;  290,445;  290,535
265,347;  327,928;  294,336;  295,795
265,437;  325,189;  296,176;  300,635
265,527;  315,849;  293,155;  294,765
265,617;  287,268;  279,875;  285,145
265,708;  324,069;  314,216;  314,825
265,798;  308,448;  305,415;  307,055
265,888;  304,368;  300,716;  305,545
265,978;  298,228;  294,496;  295,825
266,068;  316,469;  310,155;  315,855
266,158;  303,168;  294,005;  297,205
266,248;  277,909;  274,016;  276,865
266,338;  311,469;  313,035;  314,815
266,428;  305,208;  300,635;  302,655
266,518;  315,349;  311,405;  315,615
266,608;  302,928;  299,725;  294,215
266,698;  280,289;  273,586;  276,245
266,788;  281,148;  274,456;  277,745
266,878;  336,469;  325,776;  330,865
266,968;  308,888;  306,725;  309,425
267,058;  299,148;  297,375;  302,895
267,147;  307,988;  301,845;  302,905
267,237;  300,689;  291,815;  295,765
267,327;  291,629;  286,755;  287,895
267,417;  305,469;  301,225;  303,385
267,507;  300,029;  292,176;  294,215
267,597;  289,988;  282,026;  283,655
267,687;  289,009;  285,165;  287,755
267,777;  287,888;  283,986;  284,615
267,867;  315,629;  312,125;  312,585
267,956;  307,809;  302,466;  304,005
268,046;  309,749;  305,466;  310,865
268,136;  299,809;  296,875;  298,905
268,226;  279,608;  274,885;  274,965
268,316;  285,608;  280,766;  280,845
268,406;  293,768;  289,516;  287,595
268,495;  286,089;  284,415;  287,935
268,585;  314,108;  306,716;  309,605
268,675;  287,648;  284,336;  285,535
268,765;  301,608;  296,355;  300,115
268,854;  292,668;  285,935;  286,715
268,944;  300,089;  291,646;  293,805
269,034;  288,529;  283,986;  289,715
269,124;  297,529;  287,216;  290,705
269,213;  289,048;  286,336;  285,525
269,303;  292,249;  290,466;  288,585
269,393;  304,689;  299,845;  298,345
269,483;  308,589;  300,966;  302,735
269,572;  289,368;  282,875;  284,665
269,662;  280,828;  276,105;  283,315
269,752;  317,668;  312,736;  315,705
269,841;  273,728;  266,046;  269,455
269,931;  286,928;  281,586;  283,075
270,021;  303,548;  300,766;  304,675
270,110;  292,069;  285,695;  288,925
270,200;  295,849;  291,665;  299,445
270,289;  285,708;  280,785;  281,105
270,379;  307,289;  301,466;  302,775
270,469;  297,488;  290,556;  289,955
270,558;  304,349;  303,655;  302,185
270,648;  286,009;  282,785;  284,885
270,737;  297,888;  288,526;  291,525
270,827;  313,328;  310,185;  313,455
270,916;  293,569;  286,935;  289,915
271,006;  298,488;  293,475;  292,885
271,096;  322,428;  317,005;  317,215
271,185;  293,728;  289,896;  289,145
271,275;  307,849;  300,706;  303,575
271,364;  287,089;  281,535;  285,725
271,454;  317,749;  308,255;  315,275
271,543;  298,448;  296,935;  297,745
271,633;  292,589;  293,926;  292,835
271,722;  295,208;  292,255;  296,455
271,812;  285,569;  286,296;  289,275
271,901;  298,069;  292,326;  293,765
271,990;  295,849;  291,836;  290,915
272,080;  294,548;  290,635;  294,915
272,169;  304,168;  301,905;  302,555
272,259;  296,928;  293,225;  292,695
272,348;  307,108;  305,796;  308,535
272,438;  295,689;  296,935;  293,635
272,527;  302,928;  303,996;  304,365
272,616;  306,208;  301,866;  305,295
272,706;  326,089;  320,935;  323,195
272,795;  317,148;  314,076;  315,755
272,884;  300,928;  297,076;  299,515
272,974;  316,888;  317,975;  319,965
273,063;  342,589;  338,206;  337,765
273,152;  308,969;  310,306;  307,735
273,242;  325,448;  320,276;  324,915
273,331;  322,268;  319,315;  322,835
273,420;  311,708;  301,105;  310,255
273,510;  311,728;  307,355;  308,155
273,599;  312,749;  303,255;  306,195
273,688;  311,148;  302,605;  301,885
273,778;  286,529;  285,065;  287,095
273,867;  323,009;  320,266;  317,015
273,956;  305,648;  303,725;  303,805
274,045;  275,828;  273,966;  275,965
274,135;  305,548;  303,905;  305,375
274,224;  290,888;  286,516;  290,045
274,313;  307,208;  305,586;  307,745
274,402;  287,969;  284,796;  287,085
274,491;  315,849;  310,975;  312,995
274,581;  304,589;  301,415;  302,765
274,670;  296,249;  293,146;  294,385
274,759;  306,309;  299,405;  300,435
274,848;  276,448;  276,655;  279,925
274,937;  291,208;  289,945;  287,635
275,026;  286,569;  285,616;  287,835
275,116;  321,969;  316,415;  315,805
275,205;  297,529;  266,926;  271,135
275,294;  334,048;  302,315;  304,335
275,383;  305,388;  299,905;  297,985
275,472;  289,728;  290,005;  290,825
275,561;  292,608;  290,505;  290,285
275,650;  308,689;  306,046;  306,435
275,739;  297,009;  294,776;  297,985
275,828;  281,388;  274,635;  277,965
275,917;  313,749;  312,065;  306,825
276,006;  300,189;  295,426;  296,835
276,095;  300,988;  294,526;  298,665
276,184;  309,328;  309,556;  307,945
276,273;  308,909;  303,105;  304,505
276,362;  280,029;  275,896;  278,535
276,451;  297,768;  291,306;  291,915
276,540;  303,069;  295,896;  296,105
276,629;  295,168;  292,576;  293,225
276,718;  272,548;  270,695;  274,545
276,807;  278,948;  271,625;  274,825
276,896;  284,569;  280,526;  284,495
276,985;  289,789;  283,616;  289,365
277,074;  305,328;  299,105;  300,525
277,163;  299,129;  294,746;  299,085
277,252;  283,368;  279,646;  276,465
277,341;  290,948;  281,236;  289,265
277,430;  276,728;  276,845;  279,355
277,519;  303,168;  298,956;  301,695
277,608;  269,868;  266,546;  267,775
277,696;  270,089;  266,975;  269,445
277,785;  284,309;  284,095;  283,485
277,874;  303,189;  299,605;  296,795
277,963;  293,708;  288,155;  289,995
278,052;  268,969;  264,776;  265,525
278,141;  292,708;  288,415;  290,745
278,229;  291,249;  290,146;  291,935
278,318;  274,488;  268,236;  271,495
278,407;  288,048;  285,576;  285,935
278,496;  291,928;  289,915;  291,965
278,585;  303,589;  300,486;  302,275
278,673;  268,189;  263,836;  266,715
278,762;  272,768;  266,176;  270,485
278,851;  292,289;  285,496;  286,035
278,940;  308,608;  303,685;  303,305
279,028;  300,868;  296,306;  299,585
279,117;  289,368;  282,725;  286,655
279,206;  284,268;  279,475;  284,105
279,294;  284,668;  284,396;  286,665
279,383;  291,608;  286,646;  287,335
279,472;  295,728;  298,095;  298,295
279,561;  282,569;  283,355;  284,975
279,649;  315,368;  308,535;  308,935
279,738;  258,708;  255,566;  255,215
279,827;  314,648;  306,785;  308,805
279,915;  281,228;  275,285;  276,335
280,004;  296,589;  286,565;  288,905
280,092;  312,168;  305,236;  306,635
280,181;  291,948;  280,516;  282,605
280,270;  289,809;  277,866;  281,595
280,358;  302,509;  291,366;  288,915
280,447;  274,009;  261,415;  264,455
280,535;  283,469;  276,016;  275,945
280,624;  281,668;  274,185;  276,805
280,713;  283,809;  277,146;  283,385
280,801;  296,948;  293,116;  293,805
280,890;  298,189;  289,716;  295,475
280,978;  286,189;  280,755;  281,945
281,067;  258,368;  250,676;  255,865
281,155;  281,988;  274,855;  275,705
281,244;  323,048;  313,595;  316,445
281,332;  293,129;  290,845;  293,825
281,421;  275,148;  271,605;  273,675
281,509;  290,268;  284,646;  282,415
281,598;  265,849;  262,435;  263,765
281,686;  292,309;  290,776;  288,945
281,775;  294,689;  285,516;  290,815
281,863;  283,988;  278,016;  279,225
281,951;  280,728;  267,665;  270,735
282,040;  314,648;  300,315;  301,115
282,128;  301,969;  288,375;  294,235
282,217;  273,868;  265,926;  266,075
282,305;  308,309;  294,796;  294,045
282,393;  291,868;  286,505;  284,595
282,482;  288,828;  279,535;  283,255
282,570;  280,249;  266,945;  270,215
282,658;  289,208;  276,116;  277,715
282,747;  281,488;  265,026;  267,905
282,835;  316,208;  306,076;  309,035
282,923;  274,428;  264,655;  267,805
283,012;  298,789;  291,366;  296,345
283,100;  276,728;  269,185;  274,675
283,188;  267,029;  261,125;  262,525
283,277;  289,448;  284,336;  284,745
283,365;  280,448;  271,676;  278,375
283,453;  271,548;  264,755;  270,455
283,542;  297,009;  290,896;  293,765
283,630;  282,648;  276,195;  278,595
283,718;  277,349;  271,195;  274,365
283,806;  247,788;  241,706;  247,485
283,894;  276,148;  274,336;  274,395
283,983;  288,289;  282,165;  282,605
284,071;  291,309;  285,285;  291,495
284,159;  309,629;  309,125;  314,805
284,247;  294,108;  287,466;  288,555
284,335;  291,349;  286,935;  287,485
284,424;  293,728;  283,915;  288,465
284,512;  287,148;  283,475;  286,175
284,600;  286,909;  279,415;  280,145
284,688;  318,909;  312,815;  317,115
284,776;  293,888;  286,815;  287,745
284,864;  314,189;  302,125;  308,655
284,952;  289,349;  289,625;  289,025
285,041;  302,328;  298,255;  298,145
285,129;  305,208;  299,435;  302,445
285,217;  306,349;  300,056;  303,885
285,305;  320,488;  318,676;  319,885
285,393;  282,569;  275,776;  278,695
285,481;  299,048;  296,665;  298,405
285,569;  281,809;  282,966;  285,145
285,657;  301,809;  295,165;  296,255
285,745;  295,948;  292,655;  293,125
285,833;  295,189;  289,505;  293,165
285,921;  305,548;  298,116;  300,945
286,009;  303,608;  301,105;  303,655
286,097;  298,809;  298,236;  301,315
286,185;  288,148;  284,405;  284,795
286,273;  285,009;  283,415;  284,655
286,361;  315,868;  307,915;  311,825
286,449;  300,448;  296,195;  294,565
286,537;  305,689;  304,105;  302,085
286,625;  294,108;  291,185;  293,415
286,713;  282,388;  275,806;  280,315
286,801;  312,448;  312,076;  307,795
286,889;  324,529;  319,435;  320,055
286,976;  294,849;  287,905;  291,205
287,064;  312,029;  307,635;  311,875
287,152;  309,608;  303,576;  305,585
287,240;  313,529;  309,185;  308,845
287,328;  291,409;  287,685;  281,755
287,416;  292,668;  290,975;  292,385
287,504;  301,928;  294,435;  298,285
287,591;  302,928;  298,176;  300,225
287,679;  289,548;  286,095;  286,145
287,767;  301,948;  298,206;  296,985
287,855;  305,148;  303,736;  307,515
287,943;  313,108;  306,716;  309,435
288,030;  290,388;  293,456;  291,795
288,118;  321,448;  318,255;  318,995
288,206;  276,129;  274,956;  275,705
288,294;  308,428;  301,986;  304,135
288,382;  309,789;  300,776;  303,615
288,469;  308,928;  304,396;  308,895
288,557;  297,648;  294,095;  292,615
288,645;  323,589;  323,396;  323,315
288,732;  285,888;  278,915;  279,235
288,820;  311,148;  304,576;  306,785
288,908;  306,509;  304,826;  303,915
288,995;  317,828;  310,945;  310,305
289,083;  297,089;  293,026;  292,935
289,171;  335,569;  320,165;  325,565
289,258;  374,309;  322,176;  324,305
289,346;  434,069;  326,266;  329,365
289,434;  315,928;  303,435;  306,185
289,521;  290,129;  280,415;  286,295
289,609;  326,328;  320,426;  325,405
289,697;  318,349;  312,336;  315,125
289,784;  300,868;  295,445;  295,775
289,872;  310,608;  306,905;  313,015
289,959;  284,608;  282,375;  283,415
290,047;  301,428;  296,546;  300,865
290,134;  278,189;  272,665;  273,815
290,222;  316,129;  308,915;  308,665
290,310;  306,629;  304,905;  307,145
290,397;  332,728;  328,505;  332,835
290,485;  295,228;  290,815;  293,005
290,572;  317,569;  313,225;  314,645
290,660;  313,689;  306,385;  306,205
290,747;  295,349;  295,165;  292,775
290,835;  300,689;  299,016;  302,505
290,922;  301,069;  304,016;  305,515
291,009;  302,868;  297,676;  301,715
291,097;  302,268;  297,926;  300,755
291,184;  336,448;  332,716;  338,585
291,272;  294,148;  282,966;  288,375
291,359;  286,569;  283,915;  289,305
291,447;  307,268;  303,086;  304,735
291,534;  325,668;  327,326;  323,005
291,621;  303,548;  302,845;  301,105
291,709;  285,069;  285,716;  283,705
291,796;  318,728;  320,146;  316,555
291,884;  296,069;  291,466;  296,115
291,971;  322,448;  315,065;  320,295
292,058;  291,749;  288,725;  288,985
292,146;  299,409;  293,746;  297,955
292,233;  285,928;  285,426;  284,765
292,320;  299,069;  294,306;  297,685
292,408;  316,029;  309,086;  308,565
292,495;  303,309;  290,565;  293,085
292,582;  288,328;  286,845;  287,375
292,669;  288,328;  281,415;  286,055
292,757;  284,809;  282,176;  283,865
292,844;  317,228;  312,935;  313,175
292,931;  284,009;  275,176;  277,485
293,018;  297,988;  291,516;  289,915
293,106;  310,268;  299,966;  303,035
293,193;  273,648;  272,415;  274,385
293,280;  304,309;  297,255;  303,635
293,367;  294,789;  296,956;  295,215
293,455;  295,009;  293,185;  294,155
293,542;  279,388;  275,695;  281,445
293,629;  282,529;  279,035;  281,855
293,716;  312,548;  305,646;  311,195
293,803;  288,809;  287,105;  287,695
293,890;  313,388;  310,336;  312,555
293,978;  290,228;  284,105;  290,755
294,065;  285,228;  286,725;  284,345
294,152;  304,569;  302,385;  304,355
294,239;  281,409;  275,646;  274,625
294,326;  290,789;  286,746;  290,635
294,413;  281,349;  278,046;  278,465
294,500;  297,108;  292,586;  295,255
294,587;  293,469;  283,915;  287,195
294,674;  315,268;  305,875;  306,925
294,761;  295,309;  288,896;  287,945
294,848;  293,448;  286,866;  294,115
294,935;  292,388;  290,746;  290,555
295,022;  279,569;  272,396;  274,105
295,109;  262,809;  258,466;  262,665
295,196;  292,168;  291,405;  295,265
295,283;  282,328;  281,176;  278,745
295,370;  315,289;  308,975;  312,155
295,457;  290,809;  289,986;  290,435
295,544;  291,069;  285,105;  287,985
295,631;  296,708;  290,165;  295,805
295,718;  279,189;  272,676;  274,015
295,805;  302,069;  296,225;  296,685
295,892;  305,208;  300,005;  304,445
295,979;  299,469;  291,266;  292,755
296,066;  303,148;  293,996;  296,145
296,153;  306,868;  296,026;  296,355
296,240;  306,048;  299,206;  300,535
296,327;  299,828;  285,206;  285,615
296,413;  322,668;  301,285;  305,075
296,500;  338,289;  302,755;  305,145
296,587;  518,169;  288,616;  286,065
296,674; 1602,168;  294,396;  297,335
296,761;  822,789;  300,095;  298,245
296,848;  304,888;  281,956;  285,815
296,934;  300,789;  290,966;  295,265
297,021;  303,168;  292,565;  292,975
297,108;  278,228;  276,366;  280,895
297,195;  299,129;  291,466;  294,705
297,282;  294,849;  286,535;  286,195
297,368;  313,009;  310,026;  305,975
297,455;  284,948;  279,155;  283,145
297,542;  315,548;  311,375;  313,235
297,629;  303,909;  299,016;  300,205
297,715;  304,849;  308,285;  310,385
297,802;  303,548;  300,466;  303,285
297,889;  313,448;  311,716;  313,025
297,975;  328,809;  322,836;  323,685
298,062;  321,108;  310,505;  312,995
298,149;  276,589;  273,505;  274,905
298,235;  297,689;  291,135;  294,075
298,322;  294,969;  294,806;  292,785
298,409;  309,529;  311,195;  312,715
298,495;  284,868;  285,435;  283,435
298,582;  311,948;  307,516;  308,065
298,669;  297,268;  290,526;  294,245
298,755;  298,648;  299,065;  302,235
298,842;  309,548;  304,755;  309,095
298,928;  307,029;  303,855;  304,595
299,015;  297,749;  294,896;  296,705
299,102;  321,948;  318,986;  320,565
299,188;  315,768;  315,956;  316,045
299,275;  308,029;  309,926;  309,365
299,361;  282,228;  278,875;  281,665
299,448;  314,349;  312,466;  310,885
299,534;  314,069;  312,355;  312,735
299,621;  308,469;  304,655;  303,865
299,707;  306,809;  299,016;  304,675
299,794;  320,069;  319,885;  319,685
299,880;  322,969;  317,076;  318,325
299,967;  302,768;  296,345;  296,295
300,053;  305,268;  295,935;  299,065
300,140;  330,409;  323,086;  328,875
300,226;  311,988;  313,885;  313,595
300,312;  308,948;  307,276;  306,695
300,399;  313,148;  305,505;  308,465
300,485;  299,509;  297,776;  301,725
300,572;  279,108;  281,655;  281,655
300,658;  293,948;  297,216;  294,585
300,744;  312,488;  310,706;  311,315
300,831;  317,689;  313,595;  318,275
300,917;  324,868;  321,676;  320,915
301,004;  310,529;  311,556;  311,015
301,090;  278,789;  277,785;  280,095
301,176;  287,608;  284,255;  288,205
301,263;  314,409;  313,676;  314,925
301,349;  289,268;  289,475;  293,305
301,435;  284,648;  284,276;  285,095
301,521;  319,888;  314,625;  313,245
301,608;  314,629;  314,695;  315,515
301,694;  298,728;  297,896;  300,535
301,780;  308,668;  303,046;  298,285
301,867;  291,168;  280,836;  285,265
301,953;  303,249;  296,595;  301,165
302,039;  378,129;  295,116;  297,515
302,125;  538,068;  298,445;  304,125
302,211;  366,289;  332,926;  334,115
302,298;  351,868;  301,926;  305,295
302,384;  300,969;  281,116;  287,095
302,470;  297,129;  289,505;  291,305
302,556;  306,768;  301,935;  305,645
302,642;  298,108;  293,456;  295,155
302,729;  302,268;  289,306;  293,525
302,815;  318,529;  317,966;  319,775
302,901;  297,809;  296,475;  298,745
302,987;  317,069;  307,716;  308,245
303,073;  298,469;  304,185;  302,795
303,159;  299,328;  296,945;  298,695
303,245;  292,168;  284,336;  290,495
303,331;  290,289;  283,486;  286,455
303,417;  296,928;  294,556;  296,145
303,503;  309,849;  310,046;  312,155
303,590;  291,849;  289,146;  291,705
303,676;  302,988;  299,505;  300,385
303,762;  292,749;  287,185;  287,835
303,848;  312,249;  311,026;  312,055
303,934;  310,789;  304,915;  307,775
304,020;  298,548;  301,796;  304,745
304,106;  316,009;  309,975;  314,015
304,192;  295,509;  291,796;  296,765
304,278;  308,589;  302,896;  304,455
304,364;  328,009;  323,026;  324,755
304,450;  305,029;  301,496;  304,095
304,535;  303,309;  304,005;  304,245
304,621;  304,388;  301,565;  302,205
304,707;  303,728;  306,296;  307,635
304,793;  323,069;  318,625;  318,575
304,879;  306,928;  306,776;  310,585
304,965;  317,029;  312,845;  313,365
305,051;  309,728;  308,616;  311,355
305,137;  318,749;  318,146;  324,235
305,223;  295,108;  291,445;  293,725
305,309;  317,928;  313,496;  317,755
305,394;  309,208;  311,996;  311,465
305,480;  301,728;  299,426;  304,775
305,566;  309,629;  309,355;  310,525
305,652;  316,708;  313,605;  317,885
305,738;  347,689;  349,206;  353,435
305,824;  313,249;  316,016;  315,095
305,909;  320,608;  323,815;  325,155
305,995;  287,129;  289,595;  290,025
306,081;  344,809;  348,345;  350,435
306,167;  306,928;  303,966;  307,875
306,252;  324,569;  324,375;  325,505
306,338;  335,368;  331,366;  335,515
306,424;  304,048;  306,595;  307,415
306,510;  318,629;  316,105;  319,795
306,595;  323,749;  323,685;  322,125
306,681;  315,689;  316,926;  318,895
306,767;  309,228;  305,336;  309,425
306,852;  330,988;  328,255;  331,375
306,938;  326,668;  325,796;  325,905
307,024;  299,428;  302,875;  304,755
307,109;  334,928;  336,065;  338,965
307,195;  315,409;  316,326;  318,385
307,281;  318,228;  318,716;  318,575
307,366;  313,668;  313,345;  310,455
307,452;  320,388;  312,426;  316,335
307,537;  294,789;  296,776;  298,485
307,623;  291,608;  292,105;  296,985
307,709;  310,148;  309,885;  310,795
307,794;  295,668;  288,576;  291,835
307,880;  322,048;  320,236;  319,735
307,965;  308,648;  307,456;  307,525
308,051;  294,888;  297,195;  298,065
308,136;  299,529;  297,165;  296,745
308,222;  307,328;  300,366;  302,045
308,307;  297,168;  295,116;  296,645
308,393;  301,548;  295,535;  300,335
308,478;  321,349;  321,826;  318,975
308,564;  295,129;  295,516;  288,925
308,649;  308,648;  308,496;  308,295
308,735;  305,368;  294,155;  300,535
308,820;  317,509;  320,655;  319,455
308,906;  301,328;  291,625;  300,515
308,991;  340,828;  341,076;  338,375
309,076;  319,428;  319,336;  320,645
309,162;  280,009;  283,945;  283,805
309,247;  310,589;  309,945;  308,415
309,333;  295,469;  291,646;  297,855
309,418;  303,168;  298,665;  301,955
309,503;  296,349;  297,646;  300,235
309,589;  301,448;  303,725;  305,345
309,674;  291,529;  290,945;  289,235
309,759;  306,888;  303,315;  304,195
309,845;  309,909;  311,016;  312,415
309,930;  306,868;  305,966;  307,375
310,015;  277,368;  276,095;  276,835
310,101;  315,488;  315,616;  319,905
310,186;  290,129;  285,426;  288,565
310,271;  302,309;  297,296;  298,295
310,357;  295,428;  297,526;  296,455
310,442;  307,728;  302,445;  303,865
310,527;  300,268;  297,766;  301,125
310,612;  282,309;  278,195;  281,425
310,698;  319,749;  319,725;  321,135
310,783;  303,608;  301,176;  302,685
310,868;  298,909;  294,285;  295,125
310,953;  288,208;  284,165;  285,195
311,038;  315,208;  311,146;  310,075
311,124;  295,048;  294,635;  290,925
311,209;  278,168;  276,736;  277,355
311,294;  318,648;  310,206;  312,575
311,379;  281,768;  276,785;  277,345
311,464;  302,228;  297,405;  297,635
311,549;  288,368;  282,385;  284,505
311,634;  287,029;  290,396;  286,805
311,719;  324,388;  316,016;  315,415
311,805;  295,948;  289,266;  291,605
311,890;  301,328;  295,165;  295,925
311,975;  293,029;  281,526;  286,055
312,060;  311,309;  298,146;  302,435
312,145;  293,108;  277,586;  276,025
312,230;  318,469;  290,815;  296,495
312,315;  331,728;  294,065;  296,045
312,400;  402,249;  296,396;  299,795
312,485; 1544,688;  290,535;  292,475
312,570; 1269,869;  277,125;  279,615
312,655;  349,069;  308,176;  313,325
312,740;  327,249;  301,616;  302,005
312,825;  338,708;  304,105;  307,725
312,910;  359,569;  307,736;  309,235
312,995;  444,108;  296,236;  298,245
313,080; 1928,849;  285,655;  286,805
313,165; 2194,088;  303,565;  305,305
313,250;  369,328;  287,276;  287,825
313,335;  333,828;  307,435;  312,125
313,419;  280,529;  267,466;  268,635
313,504;  325,868;  313,355;  315,225
313,589;  307,689;  295,216;  297,545
313,674;  316,148;  307,206;  310,085
313,759;  286,749;  281,556;  282,625
313,844;  296,768;  292,776;  291,005
313,929;  299,368;  289,945;  291,695
314,014;  320,668;  313,306;  315,005
314,098;  311,328;  299,035;  300,425
314,183;  271,029;  263,505;  263,795
314,268;  296,629;  296,496;  298,955
314,353;  308,668;  302,026;  306,185
314,438;  312,309;  306,905;  311,515
314,522;  316,349;  309,486;  308,535
314,607;  312,689;  307,565;  307,855
314,692;  306,448;  301,885;  303,855
314,777;  297,069;  291,766;  292,395
314,861;  282,469;  277,285;  276,385
314,946;  316,029;  315,116;  317,565
315,031;  296,888;  291,875;  294,115
315,115;  311,309;  306,206;  308,065
315,200;  316,388;  312,146;  313,065
315,285;  294,488;  289,486;  289,595
315,369;  290,909;  287,945;  288,545
315,454;  316,828;  311,905;  311,025
315,539;  313,228;  310,246;  307,795
315,623;  313,168;  309,426;  313,225
315,708;  340,768;  335,605;  336,825
315,793;  300,388;  297,986;  298,155
315,877;  306,849;  302,975;  305,445
315,962;  288,129;  289,105;  291,925
316,046;  322,629;  317,065;  319,225
316,131;  337,368;  334,516;  337,215
316,216;  313,948;  310,315;  310,785
316,300;  304,488;  303,345;  302,165
316,385;  327,689;  325,315;  324,305
316,469;  332,948;  330,625;  331,955
316,554;  303,029;  296,005;  298,425
316,638;  299,728;  296,725;  301,565
316,723;  295,868;  292,546;  293,795
316,807;  296,909;  299,595;  299,275
316,892;  290,509;  288,975;  289,925
316,976;  315,689;  314,405;  316,505
317,061;  307,849;  306,035;  305,965
317,145;  326,208;  327,655;  325,965
317,230;  322,809;  321,505;  319,905
317,314;  278,969;  275,565;  275,085
317,398;  313,388;  310,706;  312,245
317,483;  289,268;  290,026;  291,085
317,567;  321,909;  315,326;  317,865
317,652;  283,648;  283,526;  286,625
317,736;  303,168;  308,776;  309,285
317,820;  333,208;  329,005;  334,665
317,905;  307,969;  306,706;  307,035
317,989;  298,129;  298,285;  300,875
318,073;  292,069;  298,076;  297,705
318,158;  288,349;  284,966;  285,565
318,242;  297,168;  296,845;  299,095
318,326;  286,129;  283,155;  284,015
318,411;  294,789;  295,125;  296,565
318,495;  289,689;  285,776;  287,165
318,579;  291,648;  288,746;  289,305
318,664;  278,328;  280,315;  284,255
318,748;  306,029;  305,996;  310,145
318,832;  288,428;  290,806;  289,475
318,916;  277,868;  274,785;  277,335
319,001;  304,108;  299,945;  301,485
319,085;  294,809;  292,885;  290,905
319,169;  296,328;  293,396;  294,485
319,253;  288,069;  287,216;  285,525
319,337;  306,749;  306,246;  304,885
319,422;  312,189;  316,125;  313,225
319,506;  284,988;  283,326;  285,905
319,590;  307,228;  303,915;  305,525
319,674;  292,828;  291,926;  295,405
319,758;  298,648;  295,165;  300,215
319,842;  306,888;  306,135;  309,155
319,926;  298,228;  294,815;  295,205
320,010;  267,069;  267,046;  269,575
320,095;  288,249;  280,926;  284,685
320,179;  283,548;  279,125;  281,175
320,263;  279,969;  277,385;  285,805
320,347;  276,689;  271,296;  279,075
320,431;  277,488;  273,435;  274,355
320,515;  296,909;  296,375;  299,935
320,599;  269,868;  269,866;  273,825
320,683;  305,388;  305,706;  305,495
320,767;  258,828;  266,236;  266,205
320,851;  288,448;  281,855;  287,785
320,935;  316,548;  312,565;  318,275
321,019;  293,789;  292,975;  290,075
321,103;  280,768;  278,135;  280,585
321,187;  273,349;  273,165;  273,265
321,271;  291,668;  294,616;  296,825
321,355;  282,888;  281,595;  283,805
321,439;  302,289;  301,216;  301,725
321,523;  283,328;  282,266;  284,705
321,606;  287,029;  287,426;  288,215
321,690;  288,029;  287,026;  288,215
321,774;  294,409;  288,336;  292,205
321,858;  290,988;  292,966;  291,945
321,942;  301,448;  294,276;  298,975
322,026;  288,689;  283,315;  282,695
322,110;  298,948;  293,146;  295,755
322,194;  295,648;  295,355;  301,055
322,277;  286,349;  286,135;  287,285
322,361;  279,749;  278,595;  281,215
322,445;  291,909;  289,315;  291,095
322,529;  296,789;  297,716;  299,645
322,613;  301,129;  297,206;  297,795
322,696;  274,148;  267,695;  272,865
322,780;  282,129;  283,026;  283,485
322,864;  279,689;  272,625;  279,835
322,948;  293,768;  292,326;  295,965
323,031;  279,409;  281,565;  282,215
323,115;  290,448;  284,586;  285,215
323,199;  296,368;  296,565;  299,105
323,282;  311,548;  307,496;  310,065
323,366;  297,589;  287,296;  293,625
323,450;  280,948;  273,496;  275,835
323,533;  314,948;  314,576;  317,415
323,617;  270,928;  268,695;  271,585
323,701;  284,728;  281,105;  283,575
323,784;  295,029;  292,576;  294,205
323,868;  295,488;  297,866;  299,875
323,952;  294,328;  290,966;  294,175
324,035;  308,168;  305,926;  310,825
324,119;  297,668;  295,466;  298,455
324,202;  294,448;  286,836;  292,745
324,286;  291,469;  284,986;  286,605
324,370;  295,289;  293,105;  296,765
324,453;  306,428;  299,616;  301,745
324,537;  299,328;  294,426;  298,035
324,620;  289,509;  286,635;  291,765
324,704;  274,529;  270,445;  276,525
324,787;  294,548;  294,875;  296,265
324,871;  311,089;  310,986;  315,255
324,954;  312,409;  312,246;  315,985
325,038;  305,089;  306,466;  306,985
325,121;  310,108;  308,695;  312,075
325,205;  291,789;  290,396;  293,295
325,288;  281,668;  279,556;  285,675
325,371;  300,849;  298,945;  302,395
325,455;  314,228;  314,026;  312,045
325,538;  289,469;  281,516;  287,185
325,622;  329,768;  320,806;  321,295
325,705;  299,689;  297,716;  298,675
325,788;  319,328;  313,625;  316,645
325,872;  302,868;  300,796;  300,745
325,955;  324,749;  319,845;  325,065
326,039;  307,529;  309,576;  312,795
326,122;  308,349;  310,746;  311,665
326,205;  313,589;  311,806;  310,235
326,289;  315,789;  313,986;  319,245
326,372;  299,548;  294,746;  299,195
326,455;  327,148;  323,095;  324,405
326,538;  318,069;  312,336;  316,545
326,622;  319,909;  318,396;  320,075
326,705;  288,469;  287,315;  287,875
326,788;  329,289;  321,266;  322,405
326,871;  322,629;  315,576;  317,965
326,955;  318,988;  313,836;  315,225
327,038;  304,428;  310,116;  310,855
327,121;  301,868;  301,516;  307,855
327,204;  313,069;  313,216;  314,045
327,288;  333,648;  328,956;  332,375
327,371;  294,448;  288,185;  296,955
327,454;  318,009;  313,065;  313,845
327,537;  296,708;  299,815;  302,435
327,620;  328,828;  322,935;  330,145
327,703;  312,629;  309,076;  310,615
327,786;  314,428;  311,076;  312,115
327,870;  323,768;  323,155;  328,715
327,953;  304,969;  301,155;  305,785
328,036;  296,888;  293,105;  299,035
328,119;  320,988;  317,576;  321,135
328,202;  305,328;  301,885;  305,875
328,285;  326,448;  326,776;  329,015
328,368;  321,969;  320,935;  322,625
328,451;  324,289;  320,635;  322,565
328,534;  305,969;  301,266;  307,075
328,617;  310,309;  305,676;  311,785
328,700;  324,409;  326,505;  326,695
328,783;  322,129;  320,785;  322,875
328,866;  316,469;  314,095;  319,935
328,949;  322,648;  319,966;  326,555
329,032;  295,809;  297,826;  300,605
329,115;  295,749;  290,905;  295,945
329,198;  283,428;  282,956;  283,785
329,281;  304,668;  299,336;  298,465
329,364;  318,789;  316,246;  319,245
329,447;  312,148;  307,176;  309,255
329,530;  330,108;  328,155;  328,175
329,613;  306,129;  300,565;  306,725
329,696;  326,509;  326,806;  330,715
329,778;  315,189;  311,306;  316,915
329,861;  296,189;  295,236;  299,565
329,944;  328,469;  321,685;  327,225
330,027;  313,289;  311,576;  315,115
330,110;  306,849;  307,595;  311,705
330,193;  295,029;  295,306;  299,955
330,275;  314,448;  312,296;  315,835
330,358;  302,488;  291,776;  296,185
330,441;  323,789;  323,586;  325,365
330,524;  312,208;  305,216;  311,095
330,607;  307,569;  304,345;  306,905
330,689;  314,888;  313,105;  314,535
330,772;  313,048;  311,105;  312,425
330,855;  327,768;  325,065;  327,855
330,938;  319,208;  312,315;  321,275
331,020;  318,189;  317,176;  320,535
331,103;  299,069;  293,035;  294,505
331,186;  307,409;  305,146;  307,085
331,268;  300,368;  293,565;  298,695
331,351;  314,689;  313,026;  316,455
331,434;  313,268;  308,385;  312,645
331,516;  324,409;  319,076;  321,185
331,599;  299,689;  297,095;  301,425
331,682;  314,268;  310,736;  310,985
331,764;  293,129;  293,326;  297,915
331,847;  318,708;  313,716;  315,705
331,929;  290,868;  290,026;  293,225
332,012;  314,409;  309,625;  310,055
332,095;  325,809;  323,306;  326,625
332,177;  324,488;  320,806;  324,285
332,260;  326,009;  327,526;  328,035
332,342;  315,809;  309,246;  314,445
332,425;  316,409;  312,516;  311,505
332,507;  311,948;  308,526;  311,575
332,590;  293,728;  287,595;  291,655
332,672;  292,168;  294,885;  298,455
332,755;  310,608;  306,855;  311,605
332,837;  309,749;  310,716;  312,255
332,920;  314,069;  309,076;  315,155
333,002;  326,488;  325,676;  328,895
333,085;  317,909;  313,375;  315,165
333,167;  298,309;  296,875;  298,575
333,249;  295,029;  294,526;  298,145
333,332;  294,768;  293,296;  297,715
333,414;  303,768;  300,035;  304,875
333,497;  303,648;  300,255;  302,305
333,579;  305,289;  300,996;  306,375
333,661;  321,228;  319,706;  320,745
333,744;  299,208;  293,695;  297,125
333,826;  305,448;  305,766;  306,065
333,908;  314,349;  313,896;  316,665
333,991;  313,708;  291,266;  291,545
334,073;  462,849;  312,706;  318,525
334,155;  357,289;  304,086;  305,525
334,238;  321,768;  318,576;  326,145
334,320;  300,148;  297,046;  300,585
334,402;  302,969;  302,996;  304,895
334,485;  298,648;  303,655;  304,015
334,567;  300,108;  299,776;  301,975
334,649;  282,108;  278,426;  282,925
334,731;  313,428;  313,456;  317,305
334,813;  318,368;  315,605;  320,355
334,896;  286,608;  290,185;  294,595
334,978;  305,689;  309,165;  302,585
335,060;  306,589;  304,255;  304,235
335,142;  303,589;  301,665;  302,275
335,224;  310,349;  309,766;  311,745
335,307;  303,868;  297,456;  298,965
335,389;  319,569;  310,385;  317,305
335,471;  307,069;  299,896;  306,115
335,553;  318,529;  319,866;  318,905
335,635;  312,168;  312,836;  315,315
335,717;  297,608;  298,195;  300,145
335,799;  320,668;  322,695;  323,585
335,881;  286,009;  278,385;  282,845
335,963;  292,988;  291,796;  293,005
336,045;  293,789;  295,516;  301,085
336,128;  271,909;  270,945;  275,225
336,210;  289,409;  288,996;  292,295
336,292;  299,809;  297,845;  300,615
336,374;  308,569;  300,956;  306,155
336,456;  288,509;  285,616;  288,495
336,538;  304,388;  303,165;  304,435
336,620;  312,509;  310,576;  312,205
336,702;  293,509;  294,766;  294,235
336,783;  306,629;  302,556;  304,225
336,865;  307,148;  304,176;  305,725
336,947;  308,428;  308,486;  311,205
337,029;  279,629;  281,826;  282,945
337,111;  321,249;  316,266;  316,735
337,193;  283,108;  280,986;  284,795
337,275;  314,608;  310,815;  314,535
337,357;  320,828;  318,815;  324,805
337,439;  307,569;  305,255;  310,655
337,521;  277,948;  277,225;  280,915
337,602;  296,148;  298,435;  301,085
337,684;  316,089;  315,635;  317,455
337,766;  312,589;  312,266;  312,305
337,848;  297,928;  295,086;  301,025
337,930;  303,948;  303,165;  306,525
338,012;  297,428;  298,586;  299,555
338,093;  312,909;  312,396;  315,895
338,175;  317,509;  318,195;  321,575
338,257;  299,309;  306,945;  309,225
338,339;  296,789;  294,086;  300,165
338,420;  311,789;  310,986;  310,895
338,502;  297,648;  298,836;  304,265
338,584;  288,888;  286,736;  289,235
338,666;  307,608;  303,426;  302,365
338,747;  333,009;  330,806;  334,875
338,829;  308,569;  309,176;  309,265
338,911;  294,349;  296,236;  298,915
338,992;  292,689;  295,746;  294,435
339,074;  308,909;  306,155;  307,855
339,156;  303,789;  298,176;  303,395
339,237;  324,509;  325,035;  327,765
339,319;  300,189;  294,935;  300,045
339,400;  310,409;  309,065;  311,225
339,482;  280,888;  278,165;  280,605
339,564;  317,089;  317,026;  316,575
339,645;  300,749;  304,595;  308,105
339,727;  294,629;  290,216;  294,375
339,808;  317,409;  317,685;  322,555
339,890;  301,309;  299,956;  302,415
339,971;  313,768;  307,016;  315,055
340,053;  334,048;  336,746;  335,255
340,134;  300,849;  296,535;  298,415
340,216;  315,448;  315,556;  319,645
340,297;  297,189;  298,396;  301,525
340,379;  318,189;  314,736;  316,975
340,460;  307,509;  306,685;  306,615
340,542;  294,689;  294,535;  297,775
340,623;  311,728;  307,926;  312,435
340,705;  295,388;  297,516;  295,795
340,786;  293,009;  289,685;  291,925
340,868;  305,428;  308,826;  304,055
340,949;  281,448;  285,605;  286,145
341,030;  325,108;  321,435;  328,715
341,112;  284,448;  280,565;  284,075
341,193;  272,629;  270,135;  273,595
341,274;  319,909;  322,176;  320,965
341,356;  325,909;  320,716;  321,795
341,437;  302,309;  301,635;  300,825
341,518;  313,228;  307,176;  314,795
341,600;  319,409;  320,866;  322,465
341,681;  327,009;  328,866;  332,375
341,762;  326,189;  325,206;  323,705
341,844;  288,168;  287,146;  292,185
341,925;  307,349;  308,225;  311,205
342,006;  320,849;  320,426;  323,055
342,087;  292,789;  288,095;  292,095
342,169;  307,749;  307,026;  309,845
342,250;  287,668;  286,935;  285,935
342,331;  301,108;  298,706;  299,075
342,412;  306,789;  307,655;  310,045
342,493;  291,168;  289,415;  293,325
342,575;  328,089;  327,095;  327,355
342,656;  315,828;  318,466;  318,265
342,737;  332,349;  329,836;  330,295
342,818;  304,309;  307,996;  309,015
342,899;  314,268;  314,505;  317,165
342,980;  306,948;  306,695;  310,155
343,061;  303,928;  303,065;  304,715
343,143;  316,469;  319,535;  319,565
343,224;  310,089;  306,706;  305,915
343,305;  301,249;  299,625;  303,115
343,386;  299,749;  297,996;  300,475
343,467;  307,668;  303,155;  305,535
343,548;  306,888;  304,176;  305,935
343,629;  316,009;  316,405;  317,625
343,710;  324,629;  322,766;  321,015
343,791;  325,148;  325,065;  327,935
343,872;  298,749;  298,975;  297,795
343,953;  314,608;  314,826;  316,625
344,034;  318,988;  319,475;  324,485
344,115;  304,249;  304,255;  303,425
344,196;  302,168;  298,935;  302,165
344,277;  294,509;  293,306;  294,615
344,358;  303,988;  304,755;  307,345
344,439;  292,328;  293,975;  294,205
344,520;  302,148;  298,546;  300,975
344,601;  316,148;  314,646;  315,525
344,681;  301,009;  302,426;  303,825
344,762;  283,809;  283,466;  287,625
344,843;  281,828;  275,996;  281,125
344,924;  299,368;  303,635;  306,085
345,005;  290,189;  287,176;  288,725
345,086;  308,089;  307,665;  309,725
345,167;  293,328;  293,986;  295,575
345,247;  325,108;  323,896;  328,905
345,328;  317,529;  315,315;  317,705
345,409;  309,268;  307,056;  309,355
345,490;  307,849;  308,415;  314,245
345,571;  303,029;  304,875;  312,045
345,651;  283,789;  279,456;  279,055
345,732;  306,548;  307,285;  312,275
345,813;  317,089;  311,836;  317,355
345,894;  291,469;  285,785;  287,595
345,974;  309,928;  309,556;  311,845
346,055;  300,129;  296,435;  295,735
346,136;  310,828;  304,405;  306,245
346,216;  327,849;  324,945;  328,565
346,297;  306,168;  306,565;  304,225
346,378;  290,849;  291,996;  294,005
346,458;  309,328;  307,375;  313,405
346,539;  306,029;  302,306;  305,975
346,620;  306,089;  305,815;  306,685
346,700;  288,448;  288,755;  289,765
346,781;  284,228;  284,556;  286,765
346,861;  301,029;  304,336;  307,325
346,942;  304,488;  304,336;  302,715
347,023;  319,928;  317,885;  316,005
347,103;  299,888;  297,396;  302,825
347,184;  297,948;  294,475;  296,785
347,264;  294,629;  294,565;  296,805
347,345;  288,668;  290,526;  295,525
347,425;  282,888;  285,125;  290,565
347,506;  281,228;  283,595;  283,195
347,586;  287,749;  289,725;  292,435
347,667;  305,328;  307,616;  304,445
347,747;  309,189;  311,116;  310,775
347,828;  296,849;  296,486;  296,465
347,908;  307,569;  303,306;  307,175
347,988;  293,368;  298,655;  306,125
348,069;  314,488;  311,056;  311,395
348,149;  306,309;  303,956;  309,065
348,230;  310,849;  309,956;  310,945
348,310;  283,909;  284,185;  285,715
348,390;  289,249;  288,526;  288,625
348,471;  303,608;  303,665;  305,125
348,551;  290,888;  290,695;  293,935
348,632;  292,548;  289,505;  294,065
348,712;  290,089;  292,706;  295,115
348,792;  328,268;  329,836;  329,985
348,873;  280,069;  281,905;  283,045
348,953;  289,388;  289,845;  290,395
349,033;  297,948;  297,466;  299,465
349,113;  283,948;  286,076;  286,905
349,194;  299,309;  301,595;  304,825
349,274;  307,488;  304,796;  307,395
349,354;  306,529;  303,046;  308,435
349,434;  300,608;  300,116;  301,925
349,515;  321,728;  316,486;  322,185
349,595;  304,828;  302,206;  302,035
349,675;  305,089;  305,635;  308,015
349,755;  300,988;  296,746;  297,615
349,835;  305,768;  301,195;  307,695
349,916;  294,948;  298,435;  303,915
349,996;  290,648;  291,105;  291,745
350,076;  312,789;  312,375;  317,645
350,156;  287,789;  284,836;  287,665
350,236;  313,849;  314,116;  311,925
350,316;  295,509;  292,975;  295,765
350,396;  306,548;  305,646;  310,065
350,476;  301,328;  301,826;  304,275
350,556;  298,589;  293,966;  299,935
350,637;  319,728;  321,005;  321,825
350,717;  289,069;  288,445;  291,825
350,797;  303,328;  302,616;  305,905
350,877;  295,048;  289,875;  294,705
350,957;  298,728;  297,635;  300,095
351,037;  304,668;  298,556;  303,455
351,117;  300,108;  296,276;  296,555
351,197;  300,189;  303,366;  306,305
351,277;  302,488;  300,556;  301,575
351,357;  316,469;  308,806;  314,445
351,437;  305,608;  306,105;  307,755
351,516;  318,708;  317,986;  318,355
351,596;  292,948;  292,896;  296,025
351,676;  291,988;  290,405;  294,265
351,756;  327,708;  323,426;  326,135
351,836;  312,069;  313,866;  317,935
351,916;  302,328;  297,905;  298,975
351,996;  304,409;  303,996;  305,265
352,076;  302,888;  303,486;  303,085
352,156;  319,529;  319,556;  320,405
352,235;  299,488;  301,255;  300,955
352,315;  313,888;  312,456;  314,415
352,395;  309,309;  308,206;  309,425
352,475;  320,428;  315,405;  320,955
352,555;  329,868;  330,236;  330,635
352,634;  326,048;  321,956;  326,705
352,714;  306,029;  302,595;  304,055
352,794;  353,828;  354,466;  358,075
352,874;  314,029;  314,685;  317,555
352,953;  334,988;  337,676;  339,095
353,033;  321,268;  319,306;  320,925
353,113;  334,928;  332,135;  336,575
353,193;  327,708;  328,046;  329,935
353,272;  332,909;  333,135;  334,365
353,352;  306,529;  307,035;  311,285
353,432;  350,428;  343,005;  347,495
353,511;  329,289;  326,185;  330,665
353,591;  364,768;  361,616;  362,555
353,671;  332,189;  331,926;  333,015
353,750;  330,428;  332,296;  331,275
353,830;  316,349;  313,646;  317,015
353,909;  339,129;  339,836;  343,655
353,989;  313,809;  317,385;  320,255
354,069;  317,809;  319,456;  319,155
354,148;  337,909;  335,035;  339,585
354,228;  315,189;  315,695;  316,905
354,307;  326,789;  329,405;  332,345
354,387;  323,948;  322,095;  322,965
354,466;  314,689;  311,635;  316,045
354,546;  335,448;  335,135;  337,645
354,625;  320,828;  319,815;  320,355
354,705;  322,608;  324,246;  326,865
354,784;  323,289;  316,445;  318,195
354,864;  317,708;  316,635;  317,385
354,943;  336,328;  333,695;  339,105
355,023;  307,089;  310,996;  312,285
355,102;  367,328;  362,866;  363,435
355,181;  317,569;  315,966;  318,045
355,261;  345,388;  338,056;  342,165
355,340;  306,608;  303,845;  307,115
355,420;  344,728;  340,105;  342,305
355,499;  325,789;  322,975;  325,635
355,578;  321,108;  315,276;  316,885
355,658;  334,108;  332,875;  333,745
355,737;  321,349;  317,576;  319,005
355,816;  324,029;  323,276;  324,605
355,896;  317,868;  316,026;  321,355
355,975;  310,988;  307,355;  310,055
356,054;  313,069;  311,935;  312,455
356,133;  292,448;  290,565;  293,305
356,213;  324,909;  324,845;  324,825
356,292;  310,548;  304,016;  309,325
356,371;  315,969;  314,146;  314,035
356,451;  329,928;  324,755;  327,685
356,530;  348,849;  349,496;  350,795
356,609;  316,809;  311,146;  315,535
356,688;  314,689;  316,475;  316,165
356,767;  307,689;  304,695;  309,855
356,846;  329,349;  327,035;  327,235
356,926;  339,368;  340,016;  343,965
357,005;  316,469;  318,345;  318,565
357,084;  304,009;  304,466;  308,385
357,163;  320,368;  317,706;  317,185
357,242;  321,409;  320,146;  319,515
357,321;  309,708;  314,496;  316,575
357,400;  319,228;  321,236;  318,865
357,479;  321,608;  317,725;  320,795
357,559;  326,409;  321,405;  325,705
357,638;  305,208;  300,616;  298,815
357,717;  313,608;  313,746;  311,555
357,796;  329,168;  329,266;  330,875
357,875;  313,148;  314,466;  313,455
357,954;  309,208;  310,155;  313,855
358,033;  322,048;  323,405;  320,935
358,112;  329,089;  329,966;  328,315
358,191;  319,148;  315,276;  318,965
358,270;  298,509;  295,505;  297,695
358,349;  321,249;  321,625;  323,725
358,428;  323,328;  322,445;  326,125
358,507;  328,728;  321,366;  325,105
358,585;  322,029;  320,355;  325,525
358,664;  331,368;  332,266;  334,505
358,743;  324,668;  323,776;  326,515
358,822;  335,589;  334,475;  338,195
358,901;  310,809;  309,176;  309,505
358,980;  312,948;  310,885;  313,735
359,059;  325,909;  328,616;  332,255
359,138;  330,029;  329,415;  328,565
359,216;  324,569;  322,225;  327,485
359,295;  308,428;  309,475;  309,515
359,374;  332,108;  330,026;  333,455
359,453;  321,928;  316,345;  320,885
359,532;  306,648;  304,526;  308,455
359,610;  324,228;  319,556;  323,285
359,689;  334,448;  331,116;  333,025
359,768;  314,569;  313,706;  315,305
359,847;  307,108;  302,065;  305,385
359,925;  305,349;  304,105;  307,215
360,004;  306,268;  299,565;  302,585
360,083;  316,488;  320,165;  321,795
360,161;  307,069;  305,676;  309,885
360,240;  287,309;  288,725;  291,455
360,319;  319,108;  318,276;  317,225
360,397;  328,648;  324,986;  331,265
360,476;  318,428;  318,296;  324,355
360,555;  347,448;  345,565;  346,835
360,633;  304,488;  304,456;  304,945
360,712;  310,168;  309,056;  311,825
360,790;  337,249;  330,065;  331,185
360,869;  311,868;  310,266;  313,085
360,948;  324,909;  322,466;  322,235
361,026;  298,928;  300,065;  301,245
361,105;  310,089;  306,116;  309,875
361,183;  327,168;  324,725;  326,345
361,262;  305,509;  302,375;  307,465
361,340;  306,249;  305,815;  306,875
361,419;  292,849;  289,896;  290,845
361,497;  344,648;  340,926;  346,955
361,576;  319,488;  317,736;  323,245
361,654;  346,189;  342,736;  343,615
361,733;  296,228;  297,366;  297,305
361,811;  326,589;  329,065;  331,875
361,890;  293,168;  292,595;  293,595
361,968;  317,249;  313,706;  316,715
362,046;  334,668;  335,296;  335,795
362,125;  340,309;  337,435;  340,865
362,203;  318,849;  314,635;  316,745
362,282;  332,228;  328,676;  334,675
362,360;  320,768;  318,315;  323,125
362,438;  315,909;  313,565;  317,495
362,517;  357,208;  357,725;  357,035
362,595;  340,108;  340,956;  345,025
362,673;  338,948;  334,576;  338,035
362,752;  328,089;  326,366;  329,445
362,830;  339,148;  343,155;  338,795
362,908;  325,268;  322,885;  326,315
362,986;  336,589;  333,595;  334,645
363,065;  332,168;  326,405;  330,985
363,143;  363,689;  359,875;  363,525
363,221;  320,988;  313,755;  319,675
363,299;  312,409;  315,845;  315,595
363,378;  332,629;  327,546;  328,495
363,456;  310,108;  304,326;  305,295
363,534;  331,428;  323,996;  327,895
363,612;  328,789;  327,546;  330,285
363,690;  336,268;  337,885;  341,915
363,769;  352,328;  349,336;  354,965
363,847;  337,189;  332,326;  333,935
363,925;  308,289;  303,095;  306,775
364,003;  355,529;  350,866;  351,845
364,081;  346,268;  336,345;  339,765
364,159;  337,349;  331,836;  334,695
364,237;  349,148;  341,276;  343,025
364,315;  329,909;  318,866;  320,765
364,393;  365,608;  350,935;  355,465
364,471;  344,048;  328,185;  329,975
364,549;  353,529;  333,026;  334,495
364,627;  358,689;  323,095;  327,065
364,705;  363,428;  311,135;  310,945
364,783;  428,988;  323,496;  332,235
364,861;  976,268;  331,396;  334,915
364,939; 3521,329;  314,086;  319,855
365,017;  801,008;  306,046;  310,735
365,095;  368,868;  322,116;  324,495
365,173;  373,648;  345,556;  349,605
365,251;  384,509;  341,535;  344,665
365,329;  530,089;  346,466;  345,195
365,407; 1151,769;  318,345;  321,385
365,485;  463,828;  344,826;  348,395
365,563;  362,168;  344,306;  346,815
365,641;  345,868;  331,896;  331,005
365,719;  346,089;  337,095;  336,965
365,796;  343,728;  334,926;  336,075
365,874;  359,548;  347,426;  349,165
365,952;  321,749;  309,516;  312,925
366,030;  347,888;  334,866;  333,525
366,108;  363,148;  326,345;  328,575
366,185;  620,029;  338,396;  343,695
366,263;  870,308;  334,646;  340,035
366,341;  381,409;  334,125;  339,925
366,419;  343,148;  331,535;  331,355
366,496;  347,029;  342,655;  345,225
366,574;  333,469;  325,826;  329,315
366,652;  352,988;  345,296;  349,635
366,730;  371,388;  365,475;  368,065
366,807;  334,648;  330,845;  334,945
366,885;  330,448;  321,135;  327,175
366,963;  337,108;  329,016;  331,635
367,040;  356,108;  345,815;  352,465
367,118;  331,328;  321,875;  325,205
367,196;  345,608;  341,896;  344,715
367,273;  338,569;  335,845;  338,245
367,351;  331,589;  328,155;  331,125
367,428;  359,589;  355,016;  356,915
367,506;  335,048;  329,225;  333,905
367,584;  361,208;  360,216;  363,085
367,661;  344,828;  341,785;  346,585
367,739;  335,409;  328,466;  334,835
367,816;  324,368;  320,345;  324,175
367,894;  343,168;  339,146;  345,755
367,971;  331,948;  329,885;  333,335
368,049;  354,589;  349,586;  353,435
368,126;  322,009;  314,625;  317,265
368,204;  356,009;  351,836;  352,775
368,281;  355,069;  353,225;  355,775
368,359;  353,648;  348,806;  354,965
368,436;  347,849;  342,385;  348,785
368,514;  349,789;  349,646;  351,035
368,591;  343,708;  343,486;  348,405
368,668;  352,969;  347,486;  351,455
368,746;  361,629;  358,556;  362,125
368,823;  340,608;  342,405;  345,515
368,901;  343,828;  339,046;  341,025
368,978;  359,108;  354,975;  361,925
369,055;  349,148;  343,826;  347,145
369,133;  366,428;  367,046;  368,725
369,210;  343,048;  339,206;  342,185
369,287;  372,868;  367,986;  371,205
369,365;  374,488;  368,896;  369,715
369,442;  348,289;  346,826;  351,135
369,519;  308,809;  306,396;  310,475
369,596;  370,828;  369,005;  372,695
369,674;  338,548;  336,526;  336,705
369,751;  367,548;  368,005;  369,405
369,828;  351,249;  350,366;  351,255
369,905;  357,589;  354,796;  358,705
369,983;  336,208;  329,826;  336,485
370,060;  335,289;  335,185;  336,165
370,137;  375,569;  371,595;  373,975
370,214;  344,168;  340,246;  340,845
370,291;  355,509;  347,845;  351,965
370,368;  347,409;  345,426;  349,675
370,446;  335,928;  335,716;  337,375
370,523;  336,868;  331,586;  338,615
370,600;  350,629;  350,706;  356,355
370,677;  347,809;  345,826;  349,525
370,754;  344,988;  341,706;  344,655
370,831;  344,488;  344,885;  347,665
370,908;  374,828;  368,556;  369,945
370,985;  329,969;  326,206;  327,885
371,062;  345,789;  346,635;  347,955
371,139;  364,089;  362,125;  364,815
371,216;  357,548;  357,496;  359,475
371,293;  352,108;  350,576;  350,305
371,370;  331,228;  328,806;  332,395
371,447;  353,428;  354,736;  355,835
371,524;  378,148;  374,685;  378,505
371,601;  373,529;  371,556;  374,285
371,678;  374,668;  374,306;  375,345
371,755;  350,888;  348,526;  348,275
371,832;  373,148;  374,526;  377,175
371,909;  340,849;  342,065;  344,605
371,986;  381,548;  376,505;  379,065
372,063;  348,809;  346,195;  348,745
372,140;  356,888;  354,056;  357,495
372,216;  363,608;  360,225;  360,935
372,293;  342,428;  341,945;  344,805
372,370;  373,328;  370,236;  372,635
372,447;  364,928;  361,646;  361,385
372,524;  351,988;  349,725;  352,115
372,601;  350,589;  353,236;  356,005
372,677;  343,108;  339,586;  339,035
372,754;  345,268;  347,516;  350,955
372,831;  359,428;  354,716;  356,955
372,908;  371,668;  368,496;  364,795
372,984;  354,928;  349,246;  356,035
373,061;  340,309;  342,046;  342,845
373,138;  350,328;  349,986;  354,465
373,215;  348,289;  345,155;  346,585
373,291;  353,988;  347,556;  353,415
373,368;  354,249;  353,516;  357,375
373,445;  350,069;  348,285;  348,395
373,521;  348,548;  349,216;  353,935
373,598;  344,069;  341,766;  343,845
373,675;  333,309;  332,646;  334,115
373,751;  350,789;  345,375;  354,195
373,828;  347,928;  341,076;  346,375
373,904;  386,589;  387,225;  391,935
373,981;  331,189;  332,516;  333,585
374,057;  356,689;  353,306;  355,945
374,134;  333,888;  331,706;  334,435
374,211;  349,368;  348,826;  351,835
374,287;  336,228;  338,565;  339,035
374,364;  365,948;  362,426;  365,335
374,440;  323,368;  319,035;  321,205
374,517;  365,728;  361,625;  366,995
374,593;  324,409;  326,896;  326,865
374,670;  346,189;  340,095;  342,905
374,746;  348,048;  346,915;  349,135
374,823;  373,708;  369,255;  368,775
374,899;  364,048;  366,836;  366,475
374,975;  340,048;  336,035;  341,495
375,052;  322,969;  319,776;  326,175
375,128;  324,909;  325,956;  331,675
375,205;  357,328;  353,665;  355,605
375,281;  338,309;  337,296;  336,395
375,357;  362,448;  361,026;  364,245
375,434;  333,409;  331,986;  338,045
375,510;  351,629;  347,755;  353,175
375,586;  348,448;  347,486;  349,845
375,663;  321,768;  321,926;  323,515
375,739;  356,249;  355,716;  358,675
375,815;  344,868;  346,366;  346,765
375,892;  345,148;  344,516;  348,555
375,968;  333,909;  331,605;  336,855
376,044;  337,589;  335,866;  339,405
376,120;  333,689;  332,535;  339,615
376,197;  350,629;  348,466;  352,185
376,273;  342,589;  340,516;  341,095
376,349;  383,828;  378,366;  379,125
376,425;  368,529;  362,935;  364,425
376,501;  342,509;  344,225;  347,555
376,578;  362,309;  362,885;  363,255
376,654;  385,529;  383,866;  382,945
376,730;  363,868;  360,266;  364,005
376,806;  375,069;  375,185;  376,845
376,882;  374,529;  377,176;  378,355
376,958;  374,629;  376,706;  373,325
377,034;  318,349;  319,695;  317,895
377,111;  372,409;  368,826;  369,285
377,187;  392,208;  390,845;  391,825
377,263;  387,249;  383,885;  384,725
377,339;  346,488;  341,445;  346,375
377,415;  363,749;  366,366;  365,685
377,491;  347,349;  342,885;  347,505
377,567;  357,789;  359,755;  360,685
377,643;  381,469;  380,076;  378,785
377,719;  368,289;  363,706;  367,845
377,795;  346,349;  345,725;  349,165
377,871;  370,888;  367,866;  370,355
377,947;  349,888;  348,236;  351,215
378,023;  347,548;  345,855;  349,075
378,099;  347,148;  349,035;  350,465
378,174;  370,048;  374,176;  374,825
378,250;  365,249;  363,105;  366,955
378,326;  374,648;  366,255;  370,045
378,402;  361,168;  357,685;  360,315
378,478;  365,488;  361,605;  365,295
378,554;  373,888;  370,396;  375,075
378,630;  361,529;  365,225;  365,285
378,706;  362,608;  358,076;  357,335
378,781;  390,888;  390,875;  394,875
378,857;  369,548;  363,185;  366,505
378,933;  364,428;  360,315;  365,855
379,009;  355,289;  351,426;  351,035
379,085;  390,469;  393,826;  391,725
379,160;  378,668;  377,246;  378,485
379,236;  378,868;  374,195;  376,655
379,312;  363,048;  359,915;  361,725
379,387;  355,708;  354,486;  355,105
379,463;  365,529;  359,836;  363,685
379,539;  371,029;  370,475;  373,395
379,615;  359,849;  359,056;  358,495
379,690;  397,569;  395,035;  398,755
379,766;  374,189;  373,276;  379,335
379,842;  387,849;  391,105;  391,375
379,917;  388,349;  380,935;  388,225
379,993;  370,789;  368,366;  373,385
380,068;  364,089;  359,236;  361,755
380,144;  381,409;  381,086;  383,405
380,220;  385,048;  382,086;  386,535
380,295;  352,328;  353,005;  355,035
380,371;  364,129;  359,935;  361,545
380,446;  380,689;  377,165;  381,125
380,522;  347,309;  348,766;  349,425
380,597;  363,828;  360,486;  359,965
380,673;  397,409;  390,456;  394,425
380,748;  358,608;  358,046;  358,445
380,824;  369,168;  367,676;  369,935
380,899;  387,388;  386,216;  388,425
380,975;  362,629;  365,475;  366,905
381,050;  355,409;  352,806;  352,825
381,126;  372,069;  370,526;  373,695
381,201;  405,988;  398,806;  402,495
381,277;  371,029;  373,435;  374,795
381,352;  393,328;  388,105;  390,855
381,427;  371,928;  372,586;  376,025
381,503;  382,768;  378,896;  379,385
381,578;  361,428;  360,605;  365,515
381,653;  372,089;  368,776;  372,375
381,729;  365,529;  361,535;  360,945
381,804;  374,268;  367,475;  368,805
381,879;  385,868;  383,306;  386,055
381,955;  361,249;  354,396;  356,545
382,030;  356,368;  356,556;  357,225
382,105;  376,648;  375,586;  372,555
382,181;  372,228;  367,466;  371,255
382,256;  372,629;  378,116;  374,765
382,331;  373,328;  367,216;  371,745
382,406;  349,868;  353,266;  357,745
382,482;  359,749;  361,315;  357,655
382,557;  363,108;  363,526;  366,745
382,632;  375,309;  370,595;  371,585
382,707;  366,529;  361,135;  365,615
382,782;  365,249;  361,516;  366,275
382,857;  357,768;  358,996;  361,035
382,933;  352,189;  351,776;  352,995
383,008;  344,069;  344,065;  345,165
383,083;  379,948;  376,866;  379,215
383,158;  380,309;  378,866;  381,615
383,233;  363,189;  362,385;  363,105
383,308;  362,328;  359,875;  362,675
383,383;  390,328;  389,445;  391,785
383,458;  359,488;  361,135;  360,475
383,533;  344,948;  342,456;  344,625
383,608;  387,969;  387,885;  390,385
383,683;  397,509;  385,046;  389,585
383,758;  381,828;  380,285;  380,925
383,833;  371,509;  370,296;  371,015
383,908;  347,749;  343,206;  342,165
383,983;  347,529;  346,296;  350,755
384,058;  357,728;  355,246;  357,655
384,133;  364,569;  368,185;  368,575
384,208;  373,828;  376,796;  379,565
384,283;  348,608;  348,736;  351,825
384,358;  384,228;  381,845;  387,485
384,433;  354,148;  357,496;  357,355
384,508;  367,148;  368,966;  373,895
384,583;  372,909;  373,725;  375,265
384,658;  370,629;  367,915;  371,275
384,732;  338,909;  339,456;  339,705
384,807;  365,768;  366,935;  369,005
384,882;  373,289;  371,246;  373,145
384,957;  373,868;  368,095;  371,985
385,032;  376,909;  375,426;  376,555
385,106;  374,029;  370,216;  371,515
385,181;  358,988;  351,385;  357,155
385,256;  363,048;  363,565;  366,745
385,331;  372,948;  371,935;  373,255
385,405;  382,969;  380,975;  381,445
385,480;  367,948;  365,695;  366,715
385,555;  408,048;  399,306;  400,405
385,630;  392,789;  390,956;  395,935
385,704;  375,868;  374,056;  377,105
385,779;  368,509;  364,405;  364,855
385,854;  370,349;  368,746;  369,975
385,928;  363,368;  363,016;  365,315
386,003;  403,268;  402,586;  405,115
386,078;  377,289;  372,466;  374,995
386,152;  405,108;  401,456;  401,815
386,227;  357,648;  357,646;  361,225
386,301;  379,888;  378,725;  380,385
386,376;  353,849;  348,695;  355,015
386,450;  380,309;  378,616;  381,145
386,525;  378,349;  373,556;  377,655
386,600;  389,448;  385,746;  385,925
386,674;  366,228;  364,076;  367,315
386,749;  375,789;  375,095;  381,315
386,823;  376,969;  377,435;  382,095
386,898;  383,708;  379,766;  380,535
386,972;  382,569;  380,966;  385,985
387,047;  374,629;  369,776;  374,355
387,121;  384,948;  379,695;  380,335
387,195;  361,148;  357,875;  359,895
387,270;  386,148;  385,625;  385,415
387,344;  403,728;  404,405;  407,055
387,419;  388,189;  385,665;  393,195
387,493;  379,168;  377,776;  379,825
387,567;  356,428;  355,005;  358,475
387,642;  405,648;  403,586;  405,945
387,716;  373,388;  369,565;  372,245
387,790;  373,988;  367,706;  371,225
387,865;  370,668;  372,806;  373,715
387,939;  405,648;  403,005;  404,415
388,013;  389,189;  384,806;  386,145
388,088;  370,228;  368,655;  370,085
388,162;  369,629;  370,135;  371,835
388,236;  372,048;  372,456;  375,275
388,310;  363,969;  361,966;  364,475
388,385;  404,569;  397,185;  400,845
388,459;  380,648;  379,996;  380,235
388,533;  358,728;  363,676;  362,565
388,607;  368,108;  366,776;  365,955
388,682;  373,469;  374,806;  375,745
388,756;  358,168;  355,035;  360,825
388,830;  390,069;  390,255;  394,075
388,904;  385,849;  378,276;  385,365
388,978;  370,309;  369,535;  370,165
389,052;  381,328;  375,396;  377,225
389,126;  371,629;  370,435;  376,195
389,200;  376,428;  372,665;  377,205
389,275;  371,148;  369,266;  367,695
389,349;  374,108;  374,695;  373,065
389,423;  368,689;  369,565;  369,375
389,497;  383,309;  380,966;  383,775
389,571;  366,228;  368,665;  370,175
389,645;  380,448;  376,806;  379,805
389,719;  372,249;  369,396;  372,955
389,793;  345,189;  346,576;  348,725
389,867;  404,069;  398,035;  402,955
389,941;  376,228;  375,375;  377,215
390,015;  365,108;  361,135;  364,515
390,089;  362,009;  360,426;  362,085
390,163;  375,409;  372,456;  375,935
390,237;  379,228;  375,435;  379,295
390,310;  383,189;  379,276;  382,155
390,384;  383,448;  376,546;  383,625
390,458;  403,409;  400,826;  403,825
390,532;  387,309;  383,496;  386,725
390,606;  367,789;  365,945;  369,265
390,680;  368,388;  366,466;  368,115
390,754;  370,029;  366,385;  368,915
390,827;  391,328;  388,276;  392,645
390,901;  392,948;  391,855;  396,215
390,975;  372,009;  368,905;  370,295
391,049;  365,388;  366,366;  364,315
391,123;  361,648;  362,685;  363,545
391,196;  368,689;  367,635;  367,855
391,270;  377,129;  378,426;  377,835
391,344;  363,988;  360,056;  359,585
391,418;  373,409;  372,975;  372,155
391,491;  362,189;  362,655;  363,995
391,565;  363,509;  362,065;  366,105
391,639;  395,048;  394,345;  397,875
391,712;  390,069;  385,815;  384,375
391,786;  383,428;  382,646;  386,785
391,860;  372,009;  369,385;  370,925
391,933;  372,428;  369,935;  371,115
392,007;  375,368;  371,355;  380,875
392,081;  402,548;  396,456;  399,955
392,154;  379,888;  377,845;  383,895
392,228;  395,428;  391,366;  394,685
392,301;  377,708;  376,266;  381,275
392,375;  389,689;  386,076;  389,995
392,448;  380,428;  379,516;  384,445
392,522;  377,048;  376,236;  379,965
392,595;  374,189;  370,105;  374,245
392,669;  383,189;  376,116;  379,675
392,742;  395,988;  390,975;  396,915
392,816;  397,129;  397,296;  400,205
392,889;  395,309;  392,746;  396,605
392,963;  410,548;  409,095;  409,745
393,036;  389,888;  385,345;  386,785
393,110;  397,228;  391,155;  393,885
393,183;  406,608;  400,836;  405,685
393,257;  423,728;  415,456;  417,745
393,330;  370,089;  365,845;  369,745
393,403;  391,728;  390,486;  395,585
393,477;  359,809;  355,845;  358,875
393,550;  390,368;  390,306;  395,545
393,623;  390,708;  388,396;  388,295
393,697;  403,228;  406,056;  406,835
393,770;  382,948;  376,556;  379,065
393,843;  410,309;  402,996;  406,915
393,917;  394,969;  394,216;  398,485
393,990;  414,328;  409,996;  410,125
394,063;  395,529;  386,855;  392,225
394,136;  389,828;  388,635;  391,675
394,210;  392,029;  393,336;  395,655
394,283;  403,208;  402,785;  407,175
394,356;  399,589;  399,165;  399,175
394,429;  399,749;  396,935;  398,825
394,502;  388,689;  382,016;  383,895
394,576;  414,728;  414,125;  414,715
394,649;  381,168;  378,776;  377,865
394,722;  401,809;  400,896;  403,785
394,795;  414,029;  408,306;  413,185
394,868;  387,888;  384,135;  385,985
394,941;  378,268;  376,435;  375,265
395,014;  424,168;  417,056;  420,205
395,088;  403,089;  398,956;  399,175
395,161;  400,089;  395,466;  398,685
395,234;  411,069;  409,236;  410,735
395,307;  404,629;  402,236;  405,525
395,380;  388,828;  384,736;  385,325
395,453;  436,969;  436,845;  437,285
395,526;  411,548;  408,385;  412,495
395,599;  429,629;  426,926;  430,645
395,672;  394,668;  394,586;  394,895
395,745;  415,749;  417,125;  421,075
395,818;  378,548;  376,306;  378,615
395,891;  386,448;  385,635;  387,695
395,964;  419,089;  415,896;  414,885
396,036;  386,569;  387,486;  384,175
396,109;  393,289;  392,076;  395,785
396,182;  396,388;  396,766;  399,545
396,255;  399,388;  399,225;  398,845
396,328;  416,648;  410,065;  411,075
396,401;  371,589;  370,746;  371,295
396,474;  384,009;  381,086;  381,505
396,547;  401,268;  397,046;  400,645
396,619;  389,509;  390,755;  390,525
396,692;  406,969;  404,866;  411,355
396,765;  371,548;  370,616;  372,985
396,838;  388,148;  388,225;  388,295
396,911;  373,349;  371,266;  373,155
396,983;  391,469;  392,496;  392,385
397,056;  369,668;  372,355;  374,095
397,129;  392,448;  387,796;  389,615
397,201;  391,849;  391,556;  389,605
397,274;  389,469;  385,366;  389,335
397,347;  364,809;  363,345;  363,665
397,420;  389,249;  384,605;  387,195
397,492;  391,189;  388,296;  388,685
397,565;  376,909;  375,915;  379,595
397,637;  370,228;  369,366;  372,085
397,710;  350,928;  351,586;  350,295
397,783;  413,268;  412,855;  414,805
397,855;  345,268;  345,345;  347,055
397,928;  370,048;  368,336;  371,095
398,000;  396,648;  395,866;  396,635
398,073;  386,268;  386,546;  384,745
398,146;  378,868;  376,706;  377,295
398,218;  395,409;  390,255;  393,135
398,291;  387,928;  385,806;  387,915
398,363;  381,129;  381,755;  384,505
398,436;  371,768;  369,855;  374,675
398,508;  380,509;  383,266;  385,345
398,581;  378,328;  378,206;  380,565
398,653;  374,009;  374,255;  373,825
398,726;  378,629;  378,535;  383,385
398,798;  384,909;  383,306;  387,885
398,870;  398,768;  391,116;  396,905
398,943;  362,888;  366,236;  369,775
399,015;  365,488;  365,676;  368,815
399,088;  388,048;  389,655;  388,435
399,160;  367,708;  368,076;  368,815
399,232;  352,708;  350,405;  352,095
399,305;  373,388;  368,435;  372,935
399,377;  382,089;  377,905;  377,535
399,449;  389,289;  386,246;  388,735
399,522;  422,249;  421,875;  424,965
399,594;  366,309;  364,576;  365,315
399,666;  383,089;  382,625;  385,235
399,738;  372,148;  373,336;  375,225
399,811;  381,289;  376,736;  377,025
399,883;  390,948;  386,105;  388,295
399,955;  389,988;  389,855;  389,195
400,027;  346,969;  345,945;  349,545
400,100;  404,428;  407,366;  409,275
400,172;  348,168;  348,296;  349,645
400,244;  380,608;  378,225;  381,195
400,316;  391,768;  393,016;  393,505
400,388;  389,749;  389,385;  393,005
400,460;  361,849;  359,306;  364,605
400,532;  352,069;  350,826;  351,835
400,605;  380,708;  377,736;  384,975
400,677;  405,728;  402,285;  404,675
400,749;  396,548;  395,685;  398,125
400,821;  390,469;  385,956;  388,105
400,893;  380,509;  379,445;  382,305
400,965;  391,708;  386,755;  392,785
401,037;  387,708;  387,565;  392,525
401,109;  374,069;  370,725;  373,835
401,181;  382,668;  380,716;  385,485

