p100promedio
Integration time [ms]:   0,150
Averaging Nr. [scans]: 100
Smoothing Nr. [pixels]: 0
Data measured with spectrometer [name]: 7416147SP
Wave   ;Sample   ;Dark     ;Reference
[nm]   ;[counts] ;[counts] ;[counts] 

230,218;  285,570;  284,600;  274,450
230,311;  312,280;  306,600;  296,450
230,404;  308,210;  298,600;  326,450
230,497;  311,490;  295,600;  309,450
230,591;  332,200;  342,600;  328,450
230,684;  324,170;  317,600;  333,450
230,777;  309,690;  318,600;  312,450
230,870;  310,740;  330,600;  321,450
230,964;  306,480;  321,600;  306,450
231,057;  334,880;  306,600;  332,450
231,150;  331,150;  320,600;  304,450
231,243;  327,150;  310,600;  310,450
231,336;  329,130;  334,600;  326,450
231,430;  314,400;  320,600;  279,450
231,523;  320,130;  346,600;  304,450
231,616;  305,440;  297,600;  290,450
231,709;  340,620;  328,600;  315,450
231,802;  310,000;  280,600;  295,450
231,895;  308,520;  293,600;  313,450
231,988;  318,680;  312,600;  320,450
232,082;  303,090;  316,600;  281,450
232,175;  311,950;  289,600;  279,450
232,268;  310,250;  319,600;  301,450
232,361;  311,050;  288,600;  264,450
232,454;  328,650;  297,600;  320,450
232,547;  326,080;  333,600;  272,450
232,640;  297,040;  314,600;  287,450
232,733;  322,800;  297,600;  300,450
232,826;  300,940;  303,600;  270,450
232,919;  319,960;  318,600;  294,450
233,012;  298,310;  322,600;  292,450
233,105;  306,590;  318,600;  283,450
233,199;  308,690;  324,600;  298,450
233,292;  299,070;  293,600;  307,450
233,385;  270,230;  262,600;  233,450
233,478;  302,210;  302,600;  272,450
233,571;  331,800;  314,600;  293,450
233,664;  313,310;  341,600;  283,450
233,757;  288,720;  254,600;  231,450
233,850;  289,450;  272,600;  248,450
233,943;  297,780;  298,600;  272,450
234,035;  310,360;  318,600;  292,450
234,128;  291,430;  282,600;  265,450
234,221;  306,050;  310,600;  293,450
234,314;  318,250;  333,600;  318,450
234,407;  318,620;  338,600;  286,450
234,500;  285,880;  286,600;  280,450
234,593;  297,910;  280,600;  290,450
234,686;  302,330;  276,600;  256,450
234,779;  298,210;  270,600;  275,450
234,872;  290,040;  276,600;  261,450
234,965;  295,440;  298,600;  286,450
235,058;  282,730;  269,600;  263,450
235,150;  297,090;  311,600;  286,450
235,243;  291,010;  280,600;  311,450
235,336;  311,880;  317,600;  296,450
235,429;  282,600;  258,600;  241,450
235,522;  339,000;  352,600;  293,450
235,615;  271,810;  309,600;  253,450
235,707;  289,300;  289,600;  277,450
235,800;  299,110;  302,600;  268,450
235,893;  298,730;  328,600;  262,450
235,986;  307,550;  305,600;  312,450
236,079;  292,180;  310,600;  308,450
236,171;  277,400;  272,600;  270,450
236,264;  320,570;  310,600;  282,450
236,357;  300,570;  289,600;  297,450
236,450;  319,150;  314,600;  308,450
236,542;  278,890;  286,600;  258,450
236,635;  321,100;  319,600;  287,450
236,728;  296,670;  276,600;  273,450
236,821;  288,190;  270,600;  268,450
236,913;  282,730;  326,600;  268,450
237,006;  276,950;  300,600;  257,450
237,099;  293,960;  289,600;  271,450
237,191;  306,930;  345,600;  288,450
237,284;  278,710;  256,600;  282,450
237,377;  305,490;  294,600;  312,450
237,470;  292,150;  291,600;  256,450
237,562;  287,250;  266,600;  261,450
237,655;  329,590;  342,600;  294,450
237,747;  302,520;  325,600;  263,450
237,840;  322,170;  292,600;  302,450
237,933;  308,140;  327,600;  284,450
238,025;  313,130;  338,600;  306,450
238,118;  289,170;  306,600;  287,450
238,211;  278,610;  282,600;  227,450
238,303;  279,000;  277,600;  273,450
238,396;  275,370;  289,600;  270,450
238,488;  298,750;  300,600;  281,450
238,581;  294,180;  306,600;  235,450
238,673;  294,830;  304,600;  273,450
238,766;  289,120;  268,600;  282,450
238,859;  279,860;  282,600;  277,450
238,951;  287,930;  295,600;  280,450
239,044;  282,000;  270,600;  283,450
239,136;  279,850;  269,600;  284,450
239,229;  283,680;  297,600;  291,450
239,321;  284,200;  262,600;  248,450
239,414;  297,070;  289,600;  288,450
239,506;  293,340;  280,600;  267,450
239,599;  327,440;  352,600;  292,450
239,691;  296,300;  306,600;  269,450
239,784;  315,170;  296,600;  288,450
239,876;  303,520;  280,600;  288,450
239,969;  292,490;  287,600;  281,450
240,061;  280,810;  277,600;  262,450
240,153;  286,480;  260,600;  278,450
240,246;  296,850;  295,600;  292,450
240,338;  319,130;  309,600;  324,450
240,431;  280,020;  277,600;  282,450
240,523;  278,400;  300,600;  237,450
240,615;  307,100;  293,600;  321,450
240,708;  320,420;  355,600;  292,450
240,800;  291,990;  302,600;  288,450
240,893;  276,780;  274,600;  261,450
240,985;  299,140;  321,600;  270,450
241,077;  272,540;  268,600;  262,450
241,170;  309,670;  313,600;  286,450
241,262;  298,750;  284,600;  284,450
241,354;  259,800;  246,600;  244,450
241,447;  289,720;  286,600;  271,450
241,539;  277,820;  295,600;  247,450
241,631;  323,380;  312,600;  279,450
241,724;  270,750;  261,600;  246,450
241,816;  291,370;  258,600;  264,450
241,908;  286,000;  278,600;  263,450
242,000;  284,130;  283,600;  263,450
242,093;  286,120;  303,600;  261,450
242,185;  288,380;  306,600;  269,450
242,277;  280,880;  282,600;  242,450
242,369;  291,520;  278,600;  269,450
242,462;  282,320;  271,600;  247,450
242,554;  286,870;  253,600;  266,450
242,646;  289,650;  282,600;  270,450
242,738;  315,280;  320,600;  281,450
242,830;  267,810;  292,600;  230,450
242,923;  307,260;  309,600;  303,450
243,015;  275,980;  288,600;  269,450
243,107;  276,250;  280,600;  253,450
243,199;  282,390;  309,600;  300,450
243,291;  280,090;  319,600;  253,450
243,383;  259,060;  240,600;  273,450
243,476;  276,210;  257,600;  282,450
243,568;  290,370;  293,600;  284,450
243,660;  285,160;  260,600;  268,450
243,752;  290,430;  305,600;  270,450
243,844;  310,450;  299,600;  284,450
243,936;  300,260;  316,600;  299,450
244,028;  309,680;  332,600;  290,450
244,120;  257,830;  267,600;  230,450
244,212;  297,840;  298,600;  289,450
244,305;  267,990;  267,600;  270,450
244,397;  300,220;  315,600;  267,450
244,489;  313,020;  303,600;  285,450
244,581;  306,770;  301,600;  279,450
244,673;  292,470;  286,600;  252,450
244,765;  297,220;  277,600;  293,450
244,857;  293,080;  303,600;  251,450
244,949;  293,110;  305,600;  282,450
245,041;  262,000;  250,600;  223,450
245,133;  305,060;  294,600;  292,450
245,225;  287,870;  258,600;  248,450
245,317;  293,610;  253,600;  267,450
245,409;  275,010;  282,600;  263,450
245,501;  296,860;  286,600;  265,450
245,593;  298,180;  328,600;  278,450
245,685;  292,800;  330,600;  286,450
245,776;  290,340;  298,600;  267,450
245,868;  275,560;  308,600;  263,450
245,960;  269,060;  242,600;  252,450
246,052;  312,370;  291,600;  307,450
246,144;  299,500;  282,600;  285,450
246,236;  286,020;  296,600;  257,450
246,328;  297,710;  285,600;  287,450
246,420;  286,870;  282,600;  270,450
246,512;  313,440;  303,600;  295,450
246,604;  290,100;  280,600;  278,450
246,695;  278,910;  275,600;  268,450
246,787;  303,240;  288,600;  299,450
246,879;  296,830;  296,600;  275,450
246,971;  307,920;  305,600;  285,450
247,063;  282,060;  281,600;  253,450
247,155;  302,300;  295,600;  240,450
247,246;  292,560;  305,600;  285,450
247,338;  297,390;  297,600;  287,450
247,430;  305,750;  298,600;  312,450
247,522;  306,030;  294,600;  294,450
247,613;  306,130;  287,600;  278,450
247,705;  296,810;  302,600;  286,450
247,797;  318,620;  322,600;  301,450
247,889;  311,880;  294,600;  286,450
247,980;  315,100;  318,600;  273,450
248,072;  321,830;  315,600;  275,450
248,164;  344,340;  368,600;  297,450
248,256;  295,140;  280,600;  302,450
248,347;  322,980;  312,600;  275,450
248,439;  289,710;  302,600;  260,450
248,531;  311,680;  301,600;  297,450
248,622;  312,390;  315,600;  318,450
248,714;  286,400;  303,600;  257,450
248,806;  305,780;  301,600;  287,450
248,897;  301,510;  266,600;  290,450
248,989;  270,230;  260,600;  246,450
249,081;  292,100;  291,600;  305,450
249,172;  300,810;  289,600;  264,450
249,264;  282,500;  310,600;  303,450
249,356;  280,050;  274,600;  253,450
249,447;  291,150;  287,600;  283,450
249,539;  289,750;  289,600;  288,450
249,630;  296,500;  296,600;  286,450
249,722;  323,680;  310,600;  305,450
249,813;  295,370;  302,600;  256,450
249,905;  301,290;  319,600;  291,450
249,997;  289,850;  270,600;  248,450
250,088;  300,570;  295,600;  285,450
250,180;  295,680;  280,600;  288,450
250,271;  296,960;  296,600;  268,450
250,363;  331,990;  329,600;  307,450
250,454;  289,150;  268,600;  238,450
250,546;  301,720;  271,600;  272,450
250,637;  276,190;  285,600;  242,450
250,729;  285,170;  267,600;  250,450
250,820;  307,500;  306,600;  297,450
250,912;  281,920;  299,600;  243,450
251,003;  294,710;  285,600;  296,450
251,095;  296,340;  296,600;  273,450
251,186;  284,680;  269,600;  253,450
251,277;  293,850;  276,600;  290,450
251,369;  297,190;  295,600;  275,450
251,460;  292,340;  272,600;  272,450
251,552;  304,810;  293,600;  292,450
251,643;  298,550;  292,600;  276,450
251,735;  296,270;  303,600;  241,450
251,826;  291,580;  313,600;  259,450
251,917;  320,850;  325,600;  258,450
252,009;  323,470;  338,600;  254,450
252,100;  325,080;  343,600;  266,450
252,191;  347,910;  337,600;  260,450
252,283;  338,270;  328,600;  299,450
252,374;  369,880;  372,600;  289,450
252,465;  393,530;  390,600;  301,450
252,557;  391,520;  393,600;  251,450
252,648;  386,660;  378,600;  258,450
252,739;  425,460;  397,600;  267,450
252,831;  420,880;  439,600;  250,450
252,922;  465,770;  440,600;  266,450
253,013;  508,080;  520,600;  241,450
253,104;  565,460;  576,600;  255,450
253,196;  683,020;  712,600;  265,450
253,287;  841,820;  807,600;  289,450
253,378; 1213,010; 1233,600;  257,450
253,469; 4212,260; 4083,600;  246,450
253,561;23098,000;23239,600;  253,450
253,652;42239,941;42949,602;  272,450
253,743; 5755,590; 5893,600;  210,450
253,834;  622,030;  622,600;  260,450
253,926;  500,320;  531,600;  249,450
254,017;  479,120;  459,600;  280,450
254,108;  442,700;  528,600;  290,450
254,199;  428,860;  418,600;  277,450
254,290;  429,240;  380,600;  290,450
254,381;  410,800;  429,600;  276,450
254,472;  411,180;  437,600;  250,450
254,564;  412,550;  411,600;  327,450
254,655;  386,860;  392,600;  304,450
254,746;  340,250;  345,600;  225,450
254,837;  370,600;  372,600;  282,450
254,928;  348,630;  368,600;  247,450
255,019;  361,220;  375,600;  281,450
255,110;  364,640;  357,600;  302,450
255,201;  346,790;  318,600;  284,450
255,292;  371,580;  381,600;  271,450
255,383;  343,930;  347,600;  265,450
255,474;  333,960;  329,600;  248,450
255,566;  343,000;  366,600;  271,450
255,657;  338,570;  350,600;  306,450
255,748;  308,110;  292,600;  235,450
255,839;  320,310;  331,600;  282,450
255,930;  318,800;  292,600;  302,450
256,021;  327,890;  336,600;  297,450
256,112;  308,750;  296,600;  257,450
256,203;  340,640;  339,600;  315,450
256,294;  320,860;  321,600;  265,450
256,384;  306,620;  279,600;  261,450
256,475;  314,440;  289,600;  284,450
256,566;  299,990;  297,600;  274,450
256,657;  289,840;  291,600;  267,450
256,748;  293,850;  302,600;  280,450
256,839;  287,170;  281,600;  274,450
256,930;  293,610;  278,600;  260,450
257,021;  316,710;  328,600;  283,450
257,112;  315,500;  311,600;  327,450
257,203;  268,620;  268,600;  240,450
257,294;  265,700;  276,600;  257,450
257,385;  300,010;  284,600;  272,450
257,475;  289,690;  277,600;  255,450
257,566;  299,080;  313,600;  267,450
257,657;  283,860;  339,600;  264,450
257,748;  280,390;  283,600;  252,450
257,839;  292,510;  319,600;  306,450
257,930;  296,550;  276,600;  275,450
258,020;  272,260;  278,600;  281,450
258,111;  272,860;  285,600;  256,450
258,202;  294,320;  309,600;  258,450
258,293;  287,750;  267,600;  255,450
258,384;  310,150;  329,600;  295,450
258,474;  294,800;  296,600;  244,450
258,565;  271,210;  250,600;  252,450
258,656;  298,560;  306,600;  257,450
258,747;  276,230;  293,600;  255,450
258,837;  280,760;  266,600;  231,450
258,928;  281,250;  247,600;  280,450
259,019;  275,260;  272,600;  264,450
259,109;  273,910;  264,600;  254,450
259,200;  290,930;  292,600;  291,450
259,291;  274,290;  246,600;  297,450
259,381;  295,730;  309,600;  264,450
259,472;  296,190;  299,600;  272,450
259,563;  307,900;  307,600;  273,450
259,653;  278,850;  281,600;  247,450
259,744;  272,740;  280,600;  260,450
259,835;  302,110;  284,600;  274,450
259,925;  275,250;  257,600;  276,450
260,016;  293,010;  303,600;  282,450
260,107;  264,150;  264,600;  265,450
260,197;  286,390;  279,600;  258,450
260,288;  277,350;  263,600;  273,450
260,378;  271,970;  274,600;  244,450
260,469;  290,800;  299,600;  273,450
260,560;  267,780;  267,600;  276,450
260,650;  273,770;  269,600;  265,450
260,741;  281,350;  279,600;  256,450
260,831;  277,090;  246,600;  276,450
260,922;  266,490;  271,600;  258,450
261,012;  271,410;  271,600;  256,450
261,103;  303,250;  320,600;  294,450
261,193;  307,020;  317,600;  320,450
261,284;  269,470;  256,600;  254,450
261,374;  300,760;  295,600;  253,450
261,465;  288,940;  321,600;  304,450
261,555;  278,230;  271,600;  275,450
261,646;  291,680;  290,600;  300,450
261,736;  285,090;  265,600;  287,450
261,827;  283,310;  293,600;  256,450
261,917;  308,200;  294,600;  344,450
262,007;  285,110;  269,600;  289,450
262,098;  292,100;  334,600;  256,450
262,188;  327,420;  316,600;  305,450
262,279;  299,920;  290,600;  292,450
262,369;  287,540;  276,600;  282,450
262,459;  288,150;  262,600;  260,450
262,550;  299,670;  314,600;  290,450
262,640;  275,300;  261,600;  274,450
262,731;  298,430;  302,600;  298,450
262,821;  307,650;  287,600;  323,450
262,911;  296,800;  312,600;  268,450
263,002;  289,340;  278,600;  271,450
263,092;  302,460;  292,600;  309,450
263,182;  284,010;  280,600;  257,450
263,273;  280,560;  277,600;  261,450
263,363;  296,450;  309,600;  284,450
263,453;  269,920;  266,600;  259,450
263,543;  289,760;  289,600;  326,450
263,634;  262,480;  263,600;  262,450
263,724;  292,710;  278,600;  276,450
263,814;  305,520;  304,600;  288,450
263,904;  284,560;  270,600;  267,450
263,995;  322,460;  306,600;  321,450
264,085;  290,470;  301,600;  259,450
264,175;  291,740;  284,600;  306,450
264,265;  317,590;  305,600;  298,450
264,356;  268,620;  260,600;  289,450
264,446;  309,810;  296,600;  298,450
264,536;  294,530;  270,600;  297,450
264,626;  317,020;  315,600;  295,450
264,716;  299,440;  330,600;  277,450
264,806;  307,400;  327,600;  306,450
264,897;  256,640;  255,600;  273,450
264,987;  306,270;  310,600;  286,450
265,077;  315,230;  297,600;  285,450
265,167;  373,570;  394,600;  346,450
265,257;  329,020;  333,600;  273,450
265,347;  325,250;  331,600;  286,450
265,437;  317,150;  304,600;  289,450
265,527;  308,520;  314,600;  292,450
265,617;  279,630;  292,600;  265,450
265,708;  310,050;  330,600;  308,450
265,798;  305,860;  315,600;  301,450
265,888;  302,300;  275,600;  270,450
265,978;  292,010;  274,600;  242,450
266,068;  311,430;  291,600;  316,450
266,158;  295,380;  288,600;  254,450
266,248;  271,050;  305,600;  248,450
266,338;  310,310;  307,600;  293,450
266,428;  301,230;  294,600;  259,450
266,518;  310,200;  321,600;  320,450
266,608;  294,700;  245,600;  273,450
266,698;  272,290;  284,600;  256,450
266,788;  274,410;  263,600;  248,450
266,878;  324,800;  350,600;  317,450
266,968;  305,370;  282,600;  304,450
267,058;  296,530;  280,600;  292,450
267,147;  297,290;  327,600;  300,450
267,237;  288,510;  293,600;  276,450
267,327;  281,040;  292,600;  276,450
267,417;  299,080;  320,600;  264,450
267,507;  291,440;  297,600;  294,450
267,597;  282,700;  273,600;  272,450
267,687;  284,480;  268,600;  286,450
267,777;  281,700;  267,600;  270,450
267,867;  312,990;  321,600;  296,450
267,956;  300,640;  282,600;  257,450
268,046;  304,710;  306,600;  298,450
268,136;  294,520;  265,600;  291,450
268,226;  271,600;  269,600;  261,450
268,316;  276,360;  266,600;  262,450
268,406;  286,490;  268,600;  338,450
268,495;  280,450;  278,600;  259,450
268,585;  302,750;  304,600;  263,450
268,675;  278,380;  296,600;  260,450
268,765;  293,530;  296,600;  287,450
268,854;  283,940;  277,600;  291,450
268,944;  291,420;  288,600;  299,450
269,034;  283,240;  313,600;  279,450
269,124;  284,790;  283,600;  286,450
269,213;  283,100;  277,600;  255,450
269,303;  284,230;  290,600;  247,450
269,393;  298,670;  265,600;  307,450
269,483;  296,730;  338,600;  273,450
269,572;  284,800;  295,600;  243,450
269,662;  275,620;  286,600;  301,450
269,752;  314,600;  320,600;  299,450
269,841;  266,270;  270,600;  247,450
269,931;  281,320;  264,600;  276,450
270,021;  300,810;  299,600;  295,450
270,110;  283,010;  286,600;  268,450
270,200;  288,320;  329,600;  299,450
270,289;  275,690;  258,600;  279,450
270,379;  301,910;  315,600;  282,450
270,469;  288,410;  297,600;  273,450
270,558;  299,230;  300,600;  286,450
270,648;  282,590;  266,600;  245,450
270,737;  288,600;  288,600;  271,450
270,827;  308,710;  279,600;  263,450
270,916;  287,380;  266,600;  280,450
271,006;  293,930;  287,600;  287,450
271,096;  318,750;  312,600;  334,450
271,185;  288,140;  307,600;  299,450
271,275;  299,810;  305,600;  279,450
271,364;  278,440;  300,600;  286,450
271,454;  310,650;  301,600;  273,450
271,543;  294,430;  295,600;  279,450
271,633;  289,150;  293,600;  257,450
271,722;  288,830;  240,600;  257,450
271,812;  282,630;  255,600;  299,450
271,901;  292,400;  276,600;  286,450
271,990;  289,250;  293,600;  267,450
272,080;  286,860;  282,600;  284,450
272,169;  294,820;  339,600;  288,450
272,259;  289,320;  319,600;  275,450
272,348;  302,580;  291,600;  305,450
272,438;  291,790;  302,600;  301,450
272,527;  300,020;  288,600;  290,450
272,616;  299,500;  295,600;  300,450
272,706;  323,130;  319,600;  313,450
272,795;  309,700;  285,600;  290,450
272,884;  293,010;  302,600;  294,450
272,974;  312,610;  281,600;  279,450
273,063;  332,480;  361,600;  290,450
273,152;  301,280;  299,600;  296,450
273,242;  320,200;  296,600;  311,450
273,331;  319,730;  306,600;  299,450
273,420;  301,910;  296,600;  313,450
273,510;  304,640;  292,600;  311,450
273,599;  303,970;  323,600;  312,450
273,688;  297,820;  311,600;  299,450
273,778;  279,940;  266,600;  259,450
273,867;  315,550;  287,600;  312,450
273,956;  301,900;  303,600;  273,450
274,045;  271,510;  263,600;  236,450
274,135;  301,600;  317,600;  317,450
274,224;  287,950;  316,600;  295,450
274,313;  296,000;  299,600;  294,450
274,402;  279,490;  263,600;  266,450
274,491;  311,060;  277,600;  286,450
274,581;  300,780;  302,600;  266,450
274,670;  290,280;  311,600;  303,450
274,759;  295,280;  303,600;  283,450
274,848;  274,450;  275,600;  301,450
274,937;  285,140;  276,600;  293,450
275,026;  284,320;  298,600;  255,450
275,116;  317,090;  323,600;  309,450
275,205;  286,930;  263,600;  231,450
275,294;  325,710;  333,600;  302,450
275,383;  295,810;  253,600;  278,450
275,472;  284,760;  286,600;  299,450
275,561;  287,100;  299,600;  300,450
275,650;  306,930;  289,600;  281,450
275,739;  292,260;  268,600;  287,450
275,828;  273,860;  262,600;  259,450
275,917;  311,900;  318,600;  305,450
276,006;  296,190;  255,600;  304,450
276,095;  292,070;  276,600;  294,450
276,184;  302,970;  317,600;  317,450
276,273;  301,730;  270,600;  297,450
276,362;  271,590;  260,600;  256,450
276,451;  284,030;  271,600;  286,450
276,540;  288,560;  259,600;  271,450
276,629;  286,750;  274,600;  290,450
276,718;  263,060;  268,600;  258,450
276,807;  267,930;  275,600;  256,450
276,896;  281,140;  269,600;  277,450
276,985;  282,720;  287,600;  255,450
277,074;  297,940;  270,600;  267,450
277,163;  293,670;  289,600;  281,450
277,252;  271,130;  269,600;  278,450
277,341;  282,320;  272,600;  248,450
277,430;  272,550;  239,600;  255,450
277,519;  298,470;  304,600;  293,450
277,608;  261,620;  254,600;  244,450
277,696;  264,640;  272,600;  279,450
277,785;  282,820;  255,600;  276,450
277,874;  293,370;  285,600;  259,450
277,963;  284,830;  273,600;  248,450
278,052;  260,950;  264,600;  286,450
278,141;  286,290;  289,600;  267,450
278,229;  289,940;  279,600;  278,450
278,318;  265,480;  278,600;  269,450
278,407;  284,080;  288,600;  264,450
278,496;  284,630;  319,600;  277,450
278,585;  299,280;  288,600;  297,450
278,673;  258,610;  257,600;  251,450
278,762;  267,450;  238,600;  264,450
278,851;  283,030;  293,600;  272,450
278,940;  299,900;  293,600;  318,450
279,028;  291,470;  271,600;  284,450
279,117;  283,390;  290,600;  283,450
279,206;  281,090;  260,600;  254,450
279,294;  280,040;  280,600;  268,450
279,383;  286,740;  272,600;  289,450
279,472;  294,860;  311,600;  252,450
279,561;  279,580;  264,600;  275,450
279,649;  305,550;  305,600;  283,450
279,738;  255,090;  229,600;  266,450
279,827;  305,550;  285,600;  272,450
279,915;  267,390;  283,600;  248,450
280,004;  285,370;  273,600;  285,450
280,092;  302,040;  286,600;  275,450
280,181;  281,470;  284,600;  249,450
280,270;  290,090;  280,600;  236,450
280,358;  298,910;  299,600;  288,450
280,447;  266,110;  246,600;  240,450
280,535;  275,140;  284,600;  259,450
280,624;  270,670;  291,600;  256,450
280,713;  278,400;  267,600;  266,450
280,801;  291,910;  303,600;  274,450
280,890;  289,890;  262,600;  274,450
280,978;  277,920;  267,600;  239,450
281,067;  250,920;  229,600;  244,450
281,155;  276,490;  267,600;  279,450
281,244;  317,790;  301,600;  299,450
281,332;  293,790;  252,600;  297,450
281,421;  270,130;  273,600;  229,450
281,509;  282,940;  266,600;  268,450
281,598;  262,390;  255,600;  241,450
281,686;  286,770;  300,600;  277,450
281,775;  288,150;  283,600;  280,450
281,863;  276,920;  244,600;  264,450
281,951;  276,520;  254,600;  256,450
282,040;  308,070;  289,600;  320,450
282,128;  297,300;  289,600;  290,450
282,217;  269,100;  255,600;  246,450
282,305;  300,490;  291,600;  280,450
282,393;  286,140;  332,600;  266,450
282,482;  283,310;  314,600;  268,450
282,570;  272,180;  274,600;  279,450
282,658;  282,090;  295,600;  277,450
282,747;  273,830;  257,600;  278,450
282,835;  311,740;  319,600;  305,450
282,923;  265,260;  230,600;  262,450
283,012;  288,970;  268,600;  305,450
283,100;  269,220;  263,600;  230,450
283,188;  259,250;  244,600;  243,450
283,277;  283,010;  279,600;  282,450
283,365;  271,100;  252,600;  253,450
283,453;  262,550;  253,600;  228,450
283,542;  292,980;  293,600;  259,450
283,630;  276,200;  259,600;  271,450
283,718;  271,790;  271,600;  247,450
283,806;  239,510;  225,600;  226,450
283,894;  268,170;  276,600;  274,450
283,983;  277,580;  256,600;  279,450
284,071;  283,880;  307,600;  269,450
284,159;  308,300;  319,600;  305,450
284,247;  288,500;  296,600;  287,450
284,335;  285,240;  267,600;  263,450
284,424;  284,590;  287,600;  269,450
284,512;  281,150;  295,600;  248,450
284,600;  275,470;  261,600;  236,450
284,688;  313,320;  297,600;  325,450
284,776;  284,900;  259,600;  277,450
284,864;  305,490;  327,600;  300,450
284,952;  287,540;  291,600;  276,450
285,041;  293,820;  286,600;  304,450
285,129;  301,030;  304,600;  290,450
285,217;  301,360;  309,600;  280,450
285,305;  316,660;  297,600;  304,450
285,393;  271,640;  255,600;  268,450
285,481;  291,490;  292,600;  274,450
285,569;  278,840;  297,600;  281,450
285,657;  290,320;  272,600;  276,450
285,745;  287,310;  334,600;  282,450
285,833;  286,570;  277,600;  294,450
285,921;  298,770;  301,600;  299,450
286,009;  299,650;  308,600;  308,450
286,097;  296,310;  313,600;  288,450
286,185;  285,020;  294,600;  259,450
286,273;  277,300;  302,600;  257,450
286,361;  307,170;  322,600;  287,450
286,449;  290,470;  305,600;  260,450
286,537;  297,670;  300,600;  248,450
286,625;  288,910;  300,600;  275,450
286,713;  276,650;  262,600;  270,450
286,801;  306,420;  320,600;  307,450
286,889;  316,400;  304,600;  282,450
286,976;  284,760;  271,600;  266,450
287,064;  306,400;  297,600;  309,450
287,152;  296,180;  332,600;  299,450
287,240;  306,420;  297,600;  327,450
287,328;  282,750;  249,600;  245,450
287,416;  286,570;  295,600;  277,450
287,504;  294,920;  302,600;  274,450
287,591;  294,060;  317,600;  307,450
287,679;  280,440;  272,600;  275,450
287,767;  292,850;  270,600;  292,450
287,855;  303,790;  271,600;  284,450
287,943;  304,300;  312,600;  269,450
288,030;  286,840;  246,600;  293,450
288,118;  314,470;  325,600;  295,450
288,206;  275,770;  264,600;  290,450
288,294;  300,880;  273,600;  292,450
288,382;  300,430;  301,600;  288,450
288,469;  305,230;  324,600;  274,450
288,557;  287,940;  276,600;  275,450
288,645;  318,420;  321,600;  281,450
288,732;  277,070;  274,600;  276,450
288,820;  301,650;  334,600;  270,450
288,908;  302,210;  295,600;  295,450
288,995;  309,240;  295,600;  277,450
289,083;  290,940;  278,600;  278,450
289,171;  325,800;  328,600;  310,450
289,258;  377,370;  402,600;  311,450
289,346;  432,130;  433,600;  329,450
289,434;  308,460;  345,600;  318,450
289,521;  282,310;  298,600;  281,450
289,609;  318,510;  317,600;  309,450
289,697;  310,790;  310,600;  321,450
289,784;  294,630;  300,600;  284,450
289,872;  307,120;  314,600;  313,450
289,959;  281,810;  274,600;  262,450
290,047;  297,300;  268,600;  272,450
290,134;  267,610;  286,600;  264,450
290,222;  307,060;  317,600;  294,450
290,310;  302,520;  310,600;  280,450
290,397;  327,220;  302,600;  319,450
290,485;  285,840;  291,600;  284,450
290,572;  312,190;  286,600;  318,450
290,660;  301,420;  300,600;  293,450
290,747;  291,050;  292,600;  290,450
290,835;  297,510;  296,600;  321,450
290,922;  297,190;  307,600;  294,450
291,009;  294,850;  310,600;  283,450
291,097;  296,730;  305,600;  282,450
291,184;  330,030;  319,600;  313,450
291,272;  281,730;  297,600;  264,450
291,359;  281,260;  283,600;  283,450
291,447;  301,260;  294,600;  309,450
291,534;  322,260;  310,600;  315,450
291,621;  296,530;  261,600;  308,450
291,709;  279,720;  284,600;  270,450
291,796;  312,170;  313,600;  323,450
291,884;  290,740;  310,600;  308,450
291,971;  314,190;  306,600;  287,450
292,058;  283,890;  250,600;  294,450
292,146;  292,590;  293,600;  279,450
292,233;  281,400;  284,600;  243,450
292,320;  291,390;  294,600;  284,450
292,408;  309,180;  316,600;  297,450
292,495;  298,650;  302,600;  281,450
292,582;  283,580;  276,600;  273,450
292,669;  275,930;  273,600;  285,450
292,757;  277,920;  292,600;  288,450
292,844;  306,590;  305,600;  312,450
292,931;  275,700;  272,600;  266,450
293,018;  289,060;  267,600;  264,450
293,106;  299,400;  290,600;  324,450
293,193;  268,580;  265,600;  280,450
293,280;  297,310;  304,600;  310,450
293,367;  292,230;  279,600;  295,450
293,455;  290,670;  253,600;  248,450
293,542;  274,810;  264,600;  268,450
293,629;  276,440;  264,600;  272,450
293,716;  302,970;  341,600;  307,450
293,803;  281,210;  273,600;  279,450
293,890;  306,530;  284,600;  298,450
293,978;  284,480;  277,600;  266,450
294,065;  279,030;  293,600;  268,450
294,152;  296,810;  276,600;  315,450
294,239;  269,380;  294,600;  269,450
294,326;  287,110;  307,600;  277,450
294,413;  273,290;  280,600;  253,450
294,500;  287,290;  304,600;  286,450
294,587;  282,050;  291,600;  255,450
294,674;  299,470;  280,600;  314,450
294,761;  285,470;  283,600;  266,450
294,848;  285,710;  275,600;  288,450
294,935;  287,440;  281,600;  279,450
295,022;  264,130;  269,600;  243,450
295,109;  258,060;  259,600;  253,450
295,196;  287,330;  297,600;  309,450
295,283;  273,790;  295,600;  256,450
295,370;  304,410;  318,600;  307,450
295,457;  283,520;  266,600;  285,450
295,544;  280,610;  277,600;  264,450
295,631;  285,340;  282,600;  272,450
295,718;  268,900;  279,600;  248,450
295,805;  294,050;  298,600;  281,450
295,892;  297,950;  314,600;  274,450
295,979;  295,240;  294,600;  284,450
296,066;  296,200;  306,600;  278,450
296,153;  296,340;  313,600;  324,450
296,240;  297,540;  312,600;  282,450
296,327;  292,400;  286,600;  257,450
296,413;  309,810;  316,600;  272,450
296,500;  332,640;  330,600;  261,450
296,587;  550,500;  534,600;  268,450
296,674; 1702,000; 1749,600;  263,450
296,761;  769,360;  786,600;  252,450
296,848;  292,410;  299,600;  274,450
296,934;  291,660;  296,600;  274,450
297,021;  290,950;  286,600;  266,450
297,108;  274,990;  310,600;  269,450
297,195;  288,520;  276,600;  268,450
297,282;  284,890;  295,600;  273,450
297,368;  306,010;  297,600;  347,450
297,455;  277,060;  284,600;  259,450
297,542;  308,350;  330,600;  316,450
297,629;  296,760;  315,600;  290,450
297,715;  302,860;  309,600;  306,450
297,802;  298,210;  286,600;  273,450
297,889;  308,320;  307,600;  319,450
297,975;  321,490;  326,600;  320,450
298,062;  314,150;  325,600;  301,450
298,149;  273,520;  300,600;  269,450
298,235;  288,000;  286,600;  308,450
298,322;  290,630;  287,600;  291,450
298,409;  306,920;  340,600;  304,450
298,495;  279,440;  282,600;  250,450
298,582;  306,370;  303,600;  304,450
298,669;  288,880;  290,600;  290,450
298,755;  293,910;  295,600;  281,450
298,842;  297,660;  315,600;  314,450
298,928;  299,650;  298,600;  281,450
299,015;  292,360;  287,600;  296,450
299,102;  315,580;  306,600;  309,450
299,188;  312,340;  307,600;  292,450
299,275;  305,800;  313,600;  289,450
299,361;  273,080;  274,600;  256,450
299,448;  303,480;  283,600;  278,450
299,534;  309,230;  328,600;  282,450
299,621;  301,160;  323,600;  302,450
299,707;  298,160;  298,600;  298,450
299,794;  315,260;  318,600;  322,450
299,880;  314,070;  301,600;  313,450
299,967;  291,600;  285,600;  251,450
300,053;  293,640;  301,600;  301,450
300,140;  321,730;  314,600;  315,450
300,226;  304,980;  320,600;  297,450
300,312;  302,100;  310,600;  306,450
300,399;  302,940;  290,600;  309,450
300,485;  297,500;  310,600;  268,450
300,572;  272,000;  272,600;  257,450
300,658;  290,470;  299,600;  272,450
300,744;  306,730;  310,600;  301,450
300,831;  313,130;  302,600;  292,450
300,917;  318,030;  298,600;  310,450
301,004;  307,400;  299,600;  288,450
301,090;  271,670;  279,600;  254,450
301,176;  281,900;  284,600;  254,450
301,263;  311,920;  322,600;  282,450
301,349;  284,660;  294,600;  273,450
301,435;  278,030;  267,600;  268,450
301,521;  312,600;  323,600;  301,450
301,608;  309,100;  311,600;  319,450
301,694;  295,950;  304,600;  283,450
301,780;  298,750;  296,600;  288,450
301,867;  281,800;  281,600;  274,450
301,953;  299,760;  289,600;  304,450
302,039;  390,880;  409,600;  273,450
302,125;  534,280;  539,600;  281,450
302,211;  356,700;  349,600;  300,450
302,298;  350,610;  374,600;  261,450
302,384;  294,220;  296,600;  238,450
302,470;  288,680;  280,600;  280,450
302,556;  299,370;  331,600;  294,450
302,642;  292,490;  286,600;  226,450
302,729;  290,510;  300,600;  270,450
302,815;  310,220;  299,600;  269,450
302,901;  290,330;  267,600;  294,450
302,987;  304,280;  299,600;  293,450
303,073;  296,810;  284,600;  283,450
303,159;  291,800;  295,600;  305,450
303,245;  282,910;  279,600;  256,450
303,331;  280,350;  281,600;  277,450
303,417;  292,120;  283,600;  328,450
303,503;  305,720;  331,600;  293,450
303,590;  283,480;  289,600;  272,450
303,676;  296,710;  289,600;  302,450
303,762;  282,440;  288,600;  270,450
303,848;  308,750;  295,600;  316,450
303,934;  300,870;  323,600;  286,450
304,020;  298,960;  304,600;  288,450
304,106;  307,100;  318,600;  287,450
304,192;  290,950;  265,600;  275,450
304,278;  298,260;  297,600;  304,450
304,364;  319,700;  327,600;  303,450
304,450;  298,620;  283,600;  288,450
304,535;  293,510;  304,600;  295,450
304,621;  298,030;  302,600;  309,450
304,707;  303,150;  294,600;  296,450
304,793;  316,040;  323,600;  295,450
304,879;  302,230;  305,600;  292,450
304,965;  308,190;  297,600;  273,450
305,051;  303,350;  310,600;  260,450
305,137;  312,690;  266,600;  314,450
305,223;  285,520;  299,600;  301,450
305,309;  311,340;  306,600;  306,450
305,394;  305,370;  266,600;  282,450
305,480;  297,890;  298,600;  266,450
305,566;  302,110;  280,600;  297,450
305,652;  309,660;  297,600;  308,450
305,738;  341,550;  332,600;  315,450
305,824;  308,520;  280,600;  303,450
305,909;  315,400;  338,600;  301,450
305,995;  283,750;  267,600;  268,450
306,081;  342,540;  368,600;  334,450
306,167;  304,420;  287,600;  311,450
306,252;  319,620;  319,600;  311,450
306,338;  329,470;  332,600;  332,450
306,424;  303,650;  315,600;  260,450
306,510;  314,090;  355,600;  305,450
306,595;  318,850;  303,600;  335,450
306,681;  311,690;  321,600;  287,450
306,767;  302,860;  313,600;  286,450
306,852;  327,120;  337,600;  314,450
306,938;  319,650;  291,600;  336,450
307,024;  296,600;  281,600;  321,450
307,109;  329,750;  340,600;  327,450
307,195;  310,950;  318,600;  337,450
307,281;  311,180;  322,600;  315,450
307,366;  309,130;  319,600;  284,450
307,452;  310,270;  292,600;  312,450
307,537;  291,450;  289,600;  281,450
307,623;  288,740;  272,600;  282,450
307,709;  307,130;  302,600;  325,450
307,794;  284,940;  293,600;  258,450
307,880;  315,080;  321,600;  320,450
307,965;  303,200;  278,600;  274,450
308,051;  290,480;  263,600;  305,450
308,136;  292,910;  314,600;  260,450
308,222;  295,790;  306,600;  301,450
308,307;  288,770;  286,600;  312,450
308,393;  295,330;  294,600;  285,450
308,478;  313,300;  321,600;  308,450
308,564;  284,520;  280,600;  276,450
308,649;  302,470;  308,600;  304,450
308,735;  298,130;  320,600;  278,450
308,820;  315,680;  328,600;  304,450
308,906;  292,260;  298,600;  272,450
308,991;  333,410;  339,600;  314,450
309,076;  315,620;  335,600;  290,450
309,162;  274,720;  265,600;  245,450
309,247;  301,860;  297,600;  288,450
309,333;  288,760;  284,600;  286,450
309,418;  295,870;  281,600;  297,450
309,503;  298,630;  301,600;  289,450
309,589;  294,700;  308,600;  306,450
309,674;  281,450;  274,600;  268,450
309,759;  298,680;  291,600;  289,450
309,845;  306,210;  290,600;  312,450
309,930;  302,740;  292,600;  288,450
310,015;  270,530;  257,600;  251,450
310,101;  313,110;  282,600;  296,450
310,186;  281,890;  267,600;  298,450
310,271;  289,700;  298,600;  286,450
310,357;  291,170;  265,600;  286,450
310,442;  300,790;  288,600;  263,450
310,527;  297,960;  288,600;  306,450
310,612;  272,890;  291,600;  253,450
310,698;  313,260;  282,600;  275,450
310,783;  299,390;  288,600;  279,450
310,868;  291,480;  313,600;  263,450
310,953;  279,800;  269,600;  293,450
311,038;  305,560;  289,600;  286,450
311,124;  292,170;  296,600;  277,450
311,209;  272,520;  293,600;  291,450
311,294;  309,370;  306,600;  303,450
311,379;  273,590;  254,600;  258,450
311,464;  297,180;  302,600;  291,450
311,549;  282,000;  277,600;  294,450
311,634;  286,810;  284,600;  275,450
311,719;  316,410;  308,600;  309,450
311,805;  291,230;  308,600;  275,450
311,890;  297,330;  308,600;  261,450
311,975;  289,180;  262,600;  283,450
312,060;  303,570;  321,600;  289,450
312,145;  289,470;  277,600;  262,450
312,230;  311,320;  313,600;  285,450
312,315;  322,520;  325,600;  262,450
312,400;  401,720;  404,600;  303,450
312,485; 1689,840; 1668,600;  292,450
312,570; 1221,930; 1232,600;  239,450
312,655;  342,030;  342,600;  282,450
312,740;  324,250;  312,600;  289,450
312,825;  333,940;  329,600;  301,450
312,910;  352,190;  343,600;  278,450
312,995;  442,150;  443,600;  325,450
313,080; 2128,240; 2082,600;  265,450
313,165; 2165,310; 2149,600;  310,450
313,250;  359,600;  308,600;  276,450
313,335;  323,520;  321,600;  307,450
313,419;  272,950;  269,600;  242,450
313,504;  317,880;  304,600;  286,450
313,589;  302,430;  272,600;  277,450
313,674;  309,230;  303,600;  290,450
313,759;  282,620;  274,600;  273,450
313,844;  295,750;  276,600;  289,450
313,929;  295,940;  295,600;  285,450
314,014;  315,180;  307,600;  320,450
314,098;  298,960;  321,600;  305,450
314,183;  265,930;  258,600;  260,450
314,268;  291,410;  295,600;  290,450
314,353;  304,280;  287,600;  290,450
314,438;  308,330;  287,600;  294,450
314,522;  305,870;  272,600;  306,450
314,607;  301,010;  282,600;  302,450
314,692;  299,410;  291,600;  301,450
314,777;  288,060;  291,600;  279,450
314,861;  274,700;  293,600;  263,450
314,946;  311,440;  321,600;  303,450
315,031;  288,700;  284,600;  267,450
315,115;  301,030;  309,600;  318,450
315,200;  309,000;  301,600;  285,450
315,285;  288,120;  278,600;  275,450
315,369;  284,020;  282,600;  273,450
315,454;  305,550;  291,600;  305,450
315,539;  302,940;  280,600;  283,450
315,623;  303,340;  308,600;  292,450
315,708;  328,460;  326,600;  315,450
315,793;  292,590;  318,600;  308,450
315,877;  298,220;  311,600;  282,450
315,962;  281,310;  263,600;  283,450
316,046;  311,730;  327,600;  298,450
316,131;  330,210;  334,600;  313,450
316,216;  304,120;  308,600;  288,450
316,300;  297,600;  307,600;  281,450
316,385;  317,160;  301,600;  319,450
316,469;  324,310;  335,600;  331,450
316,554;  291,500;  290,600;  288,450
316,638;  291,950;  297,600;  286,450
316,723;  287,330;  285,600;  262,450
316,807;  291,470;  268,600;  273,450
316,892;  282,040;  293,600;  275,450
316,976;  310,770;  298,600;  318,450
317,061;  302,400;  282,600;  309,450
317,145;  319,640;  316,600;  315,450
317,230;  316,330;  309,600;  304,450
317,314;  272,710;  264,600;  259,450
317,398;  309,520;  280,600;  323,450
317,483;  283,360;  312,600;  266,450
317,567;  308,210;  299,600;  317,450
317,652;  279,810;  280,600;  244,450
317,736;  305,140;  277,600;  329,450
317,820;  326,710;  343,600;  287,450
317,905;  301,960;  311,600;  289,450
317,989;  289,270;  303,600;  312,450
318,073;  290,270;  281,600;  280,450
318,158;  279,190;  262,600;  284,450
318,242;  291,250;  297,600;  269,450
318,326;  276,590;  265,600;  260,450
318,411;  290,320;  263,600;  290,450
318,495;  281,870;  274,600;  286,450
318,579;  279,740;  264,600;  266,450
318,664;  273,890;  284,600;  242,450
318,748;  302,170;  290,600;  266,450
318,832;  284,720;  261,600;  263,450
318,916;  268,570;  272,600;  263,450
319,001;  296,200;  287,600;  299,450
319,085;  286,240;  265,600;  265,450
319,169;  288,750;  304,600;  285,450
319,253;  284,100;  270,600;  271,450
319,337;  299,310;  311,600;  265,450
319,422;  308,240;  329,600;  325,450
319,506;  280,710;  282,600;  264,450
319,590;  299,960;  303,600;  320,450
319,674;  290,520;  326,600;  301,450
319,758;  293,470;  277,600;  278,450
319,842;  301,510;  280,600;  290,450
319,926;  289,020;  268,600;  280,450
320,010;  261,970;  267,600;  226,450
320,095;  280,060;  284,600;  274,450
320,179;  277,900;  270,600;  263,450
320,263;  276,370;  259,600;  265,450
320,347;  267,840;  217,600;  260,450
320,431;  268,570;  267,600;  245,450
320,515;  293,710;  297,600;  267,450
320,599;  264,940;  274,600;  263,450
320,683;  297,700;  295,600;  306,450
320,767;  259,280;  246,600;  230,450
320,851;  277,610;  247,600;  282,450
320,935;  309,860;  294,600;  317,450
321,019;  288,200;  258,600;  297,450
321,103;  273,520;  319,600;  295,450
321,187;  267,610;  272,600;  303,450
321,271;  287,470;  299,600;  251,450
321,355;  276,170;  290,600;  264,450
321,439;  292,270;  282,600;  306,450
321,523;  275,400;  285,600;  287,450
321,606;  280,700;  289,600;  301,450
321,690;  280,470;  285,600;  261,450
321,774;  284,400;  284,600;  286,450
321,858;  284,520;  300,600;  283,450
321,942;  289,650;  298,600;  291,450
322,026;  279,500;  296,600;  280,450
322,110;  288,780;  286,600;  264,450
322,194;  295,000;  279,600;  293,450
322,277;  280,110;  287,600;  257,450
322,361;  272,940;  260,600;  265,450
322,445;  287,020;  285,600;  252,450
322,529;  291,530;  298,600;  264,450
322,613;  287,810;  273,600;  262,450
322,696;  268,070;  287,600;  266,450
322,780;  278,300;  303,600;  256,450
322,864;  273,000;  310,600;  288,450
322,948;  288,790;  262,600;  270,450
323,031;  273,390;  268,600;  269,450
323,115;  284,330;  299,600;  257,450
323,199;  291,750;  291,600;  268,450
323,282;  304,140;  284,600;  302,450
323,366;  284,490;  280,600;  307,450
323,450;  273,130;  241,600;  266,450
323,533;  310,960;  309,600;  308,450
323,617;  262,860;  243,600;  238,450
323,701;  277,780;  239,600;  257,450
323,784;  285,520;  305,600;  289,450
323,868;  290,080;  302,600;  285,450
323,952;  289,860;  276,600;  272,450
324,035;  301,050;  295,600;  297,450
324,119;  296,850;  285,600;  262,450
324,202;  281,560;  280,600;  298,450
324,286;  284,460;  236,600;  286,450
324,370;  291,600;  291,600;  274,450
324,453;  292,890;  287,600;  296,450
324,537;  288,810;  280,600;  281,450
324,620;  284,990;  295,600;  303,450
324,704;  268,130;  281,600;  261,450
324,787;  288,220;  295,600;  267,450
324,871;  306,070;  293,600;  314,450
324,954;  308,250;  299,600;  318,450
325,038;  301,820;  299,600;  301,450
325,121;  307,150;  302,600;  316,450
325,205;  284,760;  273,600;  277,450
325,288;  275,600;  280,600;  269,450
325,371;  295,120;  275,600;  285,450
325,455;  309,830;  289,600;  302,450
325,538;  282,090;  292,600;  308,450
325,622;  319,640;  302,600;  306,450
325,705;  292,160;  303,600;  300,450
325,788;  311,840;  297,600;  298,450
325,872;  292,610;  264,600;  279,450
325,955;  314,630;  305,600;  300,450
326,039;  303,700;  290,600;  313,450
326,122;  307,290;  277,600;  288,450
326,205;  306,470;  320,600;  299,450
326,289;  313,850;  313,600;  313,450
326,372;  293,870;  310,600;  288,450
326,455;  323,370;  322,600;  318,450
326,538;  310,260;  312,600;  306,450
326,622;  316,650;  285,600;  313,450
326,705;  282,120;  272,600;  290,450
326,788;  317,000;  288,600;  324,450
326,871;  312,180;  286,600;  281,450
326,955;  312,920;  293,600;  333,450
327,038;  298,150;  304,600;  284,450
327,121;  297,860;  313,600;  303,450
327,204;  307,490;  315,600;  298,450
327,288;  327,810;  326,600;  328,450
327,371;  288,590;  286,600;  294,450
327,454;  309,980;  303,600;  316,450
327,537;  293,330;  272,600;  285,450
327,620;  324,810;  327,600;  309,450
327,703;  307,310;  308,600;  314,450
327,786;  305,430;  320,600;  319,450
327,870;  320,440;  321,600;  308,450
327,953;  297,660;  307,600;  296,450
328,036;  293,660;  291,600;  264,450
328,119;  315,810;  345,600;  299,450
328,202;  298,780;  305,600;  287,450
328,285;  322,760;  336,600;  306,450
328,368;  315,950;  335,600;  328,450
328,451;  312,720;  325,600;  334,450
328,534;  300,690;  292,600;  283,450
328,617;  303,140;  290,600;  281,450
328,700;  320,670;  325,600;  327,450
328,783;  318,300;  319,600;  292,450
328,866;  314,430;  294,600;  287,450
328,949;  317,760;  341,600;  325,450
329,032;  295,510;  292,600;  308,450
329,115;  289,360;  288,600;  279,450
329,198;  280,130;  265,600;  282,450
329,281;  295,170;  310,600;  277,450
329,364;  315,200;  300,600;  330,450
329,447;  305,980;  303,600;  300,450
329,530;  322,050;  321,600;  317,450
329,613;  297,320;  302,600;  289,450
329,696;  325,050;  308,600;  298,450
329,778;  311,790;  313,600;  293,450
329,861;  293,130;  309,600;  288,450
329,944;  317,830;  326,600;  272,450
330,027;  308,820;  312,600;  296,450
330,110;  306,480;  305,600;  313,450
330,193;  291,460;  284,600;  300,450
330,275;  311,820;  290,600;  298,450
330,358;  290,230;  278,600;  298,450
330,441;  317,330;  307,600;  326,450
330,524;  305,930;  322,600;  298,450
330,607;  298,450;  281,600;  304,450
330,689;  307,730;  278,600;  321,450
330,772;  304,670;  290,600;  305,450
330,855;  323,950;  329,600;  287,450
330,938;  315,030;  332,600;  319,450
331,020;  314,130;  298,600;  292,450
331,103;  291,820;  280,600;  310,450
331,186;  301,100;  298,600;  286,450
331,268;  289,170;  280,600;  269,450
331,351;  306,540;  285,600;  311,450
331,434;  308,980;  296,600;  316,450
331,516;  311,910;  313,600;  329,450
331,599;  296,860;  266,600;  255,450
331,682;  307,290;  301,600;  302,450
331,764;  291,920;  308,600;  261,450
331,847;  309,810;  311,600;  310,450
331,929;  288,170;  286,600;  278,450
332,012;  307,810;  296,600;  295,450
332,095;  322,020;  348,600;  317,450
332,177;  319,030;  353,600;  324,450
332,260;  319,510;  349,600;  345,450
332,342;  305,150;  310,600;  291,450
332,425;  307,460;  301,600;  293,450
332,507;  303,140;  239,600;  316,450
332,590;  285,480;  274,600;  280,450
332,672;  289,020;  310,600;  264,450
332,755;  297,440;  320,600;  233,450
332,837;  302,800;  286,600;  274,450
332,920;  308,370;  315,600;  298,450
333,002;  320,230;  308,600;  306,450
333,085;  309,060;  308,600;  298,450
333,167;  291,800;  275,600;  266,450
333,249;  292,420;  276,600;  277,450
333,332;  289,440;  275,600;  279,450
333,414;  299,040;  317,600;  295,450
333,497;  297,870;  315,600;  305,450
333,579;  299,730;  303,600;  307,450
333,661;  316,530;  319,600;  286,450
333,744;  289,840;  265,600;  243,450
333,826;  305,970;  302,600;  293,450
333,908;  314,490;  329,600;  332,450
333,991;  300,600;  253,600;  285,450
334,073;  467,980;  503,600;  321,450
334,155;  350,610;  360,600;  289,450
334,238;  319,350;  314,600;  286,450
334,320;  295,530;  296,600;  270,450
334,402;  301,890;  298,600;  292,450
334,485;  298,060;  305,600;  282,450
334,567;  292,700;  301,600;  262,450
334,649;  274,580;  266,600;  273,450
334,731;  307,590;  287,600;  285,450
334,813;  305,630;  346,600;  352,450
334,896;  282,800;  296,600;  287,450
334,978;  298,570;  302,600;  283,450
335,060;  302,110;  306,600;  296,450
335,142;  293,980;  265,600;  306,450
335,224;  306,960;  308,600;  310,450
335,307;  291,670;  277,600;  275,450
335,389;  308,530;  302,600;  315,450
335,471;  297,630;  300,600;  282,450
335,553;  314,690;  308,600;  317,450
335,635;  307,720;  303,600;  277,450
335,717;  295,000;  280,600;  305,450
335,799;  316,140;  314,600;  325,450
335,881;  273,730;  271,600;  251,450
335,963;  288,640;  283,600;  278,450
336,045;  287,370;  281,600;  276,450
336,128;  268,590;  281,600;  268,450
336,210;  285,740;  284,600;  250,450
336,292;  294,210;  301,600;  283,450
336,374;  300,390;  307,600;  287,450
336,456;  278,950;  290,600;  258,450
336,538;  297,870;  288,600;  304,450
336,620;  308,290;  325,600;  305,450
336,702;  286,480;  308,600;  309,450
336,783;  299,080;  299,600;  289,450
336,865;  300,640;  302,600;  303,450
336,947;  301,380;  299,600;  302,450
337,029;  276,270;  252,600;  262,450
337,111;  311,780;  309,600;  328,450
337,193;  283,490;  257,600;  250,450
337,275;  307,530;  302,600;  291,450
337,357;  314,920;  299,600;  305,450
337,439;  299,710;  299,600;  277,450
337,521;  273,450;  274,600;  268,450
337,602;  292,810;  280,600;  295,450
337,684;  308,910;  302,600;  341,450
337,766;  303,860;  301,600;  288,450
337,848;  292,010;  309,600;  318,450
337,930;  294,420;  300,600;  300,450
338,012;  294,340;  257,600;  295,450
338,093;  311,220;  302,600;  312,450
338,175;  315,600;  308,600;  308,450
338,257;  299,710;  296,600;  243,450
338,339;  293,440;  303,600;  248,450
338,420;  304,860;  304,600;  329,450
338,502;  294,710;  292,600;  292,450
338,584;  280,470;  261,600;  270,450
338,666;  296,330;  293,600;  301,450
338,747;  328,240;  337,600;  324,450
338,829;  302,030;  301,600;  300,450
338,911;  293,180;  281,600;  284,450
338,992;  287,090;  292,600;  299,450
339,074;  302,260;  300,600;  274,450
339,156;  293,080;  308,600;  302,450
339,237;  323,620;  344,600;  320,450
339,319;  291,200;  298,600;  284,450
339,400;  305,450;  301,600;  313,450
339,482;  275,300;  291,600;  259,450
339,564;  314,350;  337,600;  315,450
339,645;  303,680;  283,600;  306,450
339,727;  287,090;  284,600;  278,450
339,808;  314,860;  306,600;  320,450
339,890;  295,350;  285,600;  277,450
339,971;  309,160;  318,600;  299,450
340,053;  332,210;  327,600;  339,450
340,134;  287,560;  287,600;  283,450
340,216;  312,340;  294,600;  302,450
340,297;  295,720;  330,600;  312,450
340,379;  306,370;  344,600;  301,450
340,460;  303,070;  275,600;  299,450
340,542;  291,110;  307,600;  263,450
340,623;  309,080;  306,600;  325,450
340,705;  290,710;  306,600;  262,450
340,786;  285,330;  299,600;  288,450
340,868;  304,690;  299,600;  313,450
340,949;  278,020;  279,600;  269,450
341,030;  319,870;  330,600;  312,450
341,112;  278,740;  256,600;  269,450
341,193;  267,010;  287,600;  248,450
341,274;  316,680;  325,600;  312,450
341,356;  314,970;  329,600;  300,450
341,437;  292,110;  292,600;  284,450
341,518;  307,950;  313,600;  322,450
341,600;  313,950;  321,600;  324,450
341,681;  319,670;  316,600;  308,450
341,762;  322,510;  316,600;  314,450
341,844;  282,130;  271,600;  280,450
341,925;  300,810;  304,600;  329,450
342,006;  314,580;  314,600;  322,450
342,087;  286,810;  291,600;  308,450
342,169;  305,890;  301,600;  297,450
342,250;  281,130;  303,600;  250,450
342,331;  290,970;  291,600;  268,450
342,412;  307,090;  304,600;  283,450
342,493;  280,640;  279,600;  266,450
342,575;  325,380;  298,600;  308,450
342,656;  313,330;  343,600;  319,450
342,737;  326,850;  331,600;  316,450
342,818;  301,960;  319,600;  291,450
342,899;  310,350;  309,600;  295,450
342,980;  303,670;  306,600;  302,450
343,061;  297,770;  297,600;  279,450
343,143;  312,910;  299,600;  310,450
343,224;  304,780;  297,600;  287,450
343,305;  295,370;  294,600;  273,450
343,386;  297,440;  290,600;  295,450
343,467;  296,980;  306,600;  295,450
343,548;  297,340;  307,600;  271,450
343,629;  312,360;  348,600;  311,450
343,710;  317,600;  354,600;  330,450
343,791;  318,870;  296,600;  295,450
343,872;  294,980;  314,600;  271,450
343,953;  316,440;  323,600;  303,450
344,034;  313,430;  307,600;  307,450
344,115;  298,040;  298,600;  295,450
344,196;  296,660;  295,600;  273,450
344,277;  291,650;  282,600;  299,450
344,358;  304,990;  279,600;  295,450
344,439;  292,420;  281,600;  287,450
344,520;  291,730;  310,600;  269,450
344,601;  307,860;  319,600;  332,450
344,681;  300,640;  312,600;  315,450
344,762;  279,300;  275,600;  257,450
344,843;  274,290;  300,600;  255,450
344,924;  306,900;  252,600;  290,450
345,005;  280,590;  269,600;  286,450
345,086;  301,580;  301,600;  289,450
345,167;  287,590;  299,600;  282,450
345,247;  320,760;  305,600;  327,450
345,328;  315,310;  287,600;  317,450
345,409;  301,440;  280,600;  307,450
345,490;  306,740;  314,600;  310,450
345,571;  303,090;  293,600;  295,450
345,651;  273,940;  260,600;  335,450
345,732;  302,220;  303,600;  286,450
345,813;  315,160;  285,600;  291,450
345,894;  278,920;  254,600;  279,450
345,974;  304,280;  346,600;  305,450
346,055;  289,760;  275,600;  291,450
346,136;  303,730;  311,600;  287,450
346,216;  324,060;  312,600;  345,450
346,297;  299,320;  294,600;  289,450
346,378;  289,570;  270,600;  300,450
346,458;  307,860;  299,600;  271,450
346,539;  297,610;  295,600;  315,450
346,620;  303,430;  301,600;  312,450
346,700;  278,780;  302,600;  258,450
346,781;  283,150;  252,600;  260,450
346,861;  298,410;  283,600;  301,450
346,942;  297,570;  273,600;  319,450
347,023;  309,170;  302,600;  306,450
347,103;  293,710;  296,600;  287,450
347,184;  289,310;  321,600;  294,450
347,264;  289,980;  289,600;  310,450
347,345;  288,360;  280,600;  281,450
347,425;  280,280;  270,600;  295,450
347,506;  276,940;  283,600;  283,450
347,586;  285,870;  258,600;  283,450
347,667;  301,660;  316,600;  299,450
347,747;  304,960;  307,600;  304,450
347,828;  291,540;  308,600;  271,450
347,908;  307,230;  307,600;  307,450
347,988;  293,300;  296,600;  251,450
348,069;  309,160;  295,600;  305,450
348,149;  301,580;  303,600;  276,450
348,230;  306,860;  297,600;  301,450
348,310;  279,530;  291,600;  301,450
348,390;  278,520;  285,600;  267,450
348,471;  298,640;  299,600;  270,450
348,551;  284,240;  289,600;  264,450
348,632;  285,420;  288,600;  278,450
348,712;  287,050;  281,600;  278,450
348,792;  323,140;  352,600;  333,450
348,873;  278,160;  293,600;  249,450
348,953;  287,520;  278,600;  330,450
349,033;  296,650;  285,600;  311,450
349,113;  278,810;  278,600;  277,450
349,194;  298,050;  289,600;  310,450
349,274;  299,560;  300,600;  310,450
349,354;  299,570;  288,600;  285,450
349,434;  298,200;  300,600;  299,450
349,515;  315,400;  310,600;  320,450
349,595;  300,490;  308,600;  287,450
349,675;  306,670;  289,600;  299,450
349,755;  295,700;  325,600;  280,450
349,835;  300,720;  305,600;  309,450
349,916;  295,290;  298,600;  284,450
349,996;  285,720;  287,600;  253,450
350,076;  304,310;  286,600;  315,450
350,156;  277,180;  272,600;  280,450
350,236;  309,300;  292,600;  316,450
350,316;  292,050;  296,600;  282,450
350,396;  298,100;  283,600;  306,450
350,476;  298,830;  308,600;  275,450
350,556;  295,040;  275,600;  290,450
350,637;  317,760;  331,600;  312,450
350,717;  286,170;  269,600;  287,450
350,797;  302,010;  307,600;  305,450
350,877;  290,970;  305,600;  323,450
350,957;  293,930;  285,600;  291,450
351,037;  298,230;  303,600;  298,450
351,117;  292,260;  304,600;  275,450
351,197;  300,690;  331,600;  302,450
351,277;  297,340;  328,600;  277,450
351,357;  308,140;  322,600;  293,450
351,437;  301,410;  299,600;  283,450
351,516;  315,740;  337,600;  283,450
351,596;  288,550;  291,600;  329,450
351,676;  284,060;  269,600;  284,450
351,756;  325,540;  308,600;  326,450
351,836;  312,030;  285,600;  329,450
351,916;  294,610;  324,600;  287,450
351,996;  300,680;  313,600;  318,450
352,076;  296,400;  288,600;  302,450
352,156;  313,840;  317,600;  297,450
352,235;  297,330;  310,600;  304,450
352,315;  306,230;  313,600;  339,450
352,395;  306,640;  306,600;  277,450
352,475;  314,180;  339,600;  287,450
352,555;  326,330;  362,600;  344,450
352,634;  318,550;  304,600;  344,450
352,714;  301,500;  310,600;  263,450
352,794;  351,640;  334,600;  364,450
352,874;  314,450;  335,600;  339,450
352,953;  333,940;  336,600;  318,450
353,033;  322,210;  317,600;  344,450
353,113;  329,640;  360,600;  341,450
353,193;  322,740;  314,600;  334,450
353,272;  328,640;  295,600;  329,450
353,352;  311,650;  303,600;  275,450
353,432;  339,890;  324,600;  344,450
353,511;  330,300;  323,600;  302,450
353,591;  358,180;  352,600;  347,450
353,671;  331,390;  335,600;  320,450
353,750;  326,760;  311,600;  311,450
353,830;  311,770;  319,600;  296,450
353,909;  339,090;  335,600;  341,450
353,989;  312,450;  309,600;  297,450
354,069;  316,070;  315,600;  318,450
354,148;  335,820;  341,600;  323,450
354,228;  311,850;  315,600;  300,450
354,307;  324,940;  313,600;  312,450
354,387;  317,730;  316,600;  326,450
354,466;  311,760;  319,600;  299,450
354,546;  332,350;  314,600;  347,450
354,625;  313,660;  341,600;  324,450
354,705;  318,100;  272,600;  330,450
354,784;  316,110;  301,600;  303,450
354,864;  314,030;  309,600;  305,450
354,943;  336,180;  340,600;  339,450
355,023;  304,710;  288,600;  314,450
355,102;  360,990;  337,600;  333,450
355,181;  313,330;  328,600;  329,450
355,261;  336,800;  314,600;  344,450
355,340;  302,470;  301,600;  307,450
355,420;  339,460;  325,600;  327,450
355,499;  317,980;  294,600;  326,450
355,578;  311,570;  321,600;  324,450
355,658;  331,420;  310,600;  346,450
355,737;  320,210;  312,600;  309,450
355,816;  321,180;  330,600;  333,450
355,896;  316,530;  300,600;  301,450
355,975;  306,040;  308,600;  294,450
356,054;  304,830;  316,600;  285,450
356,133;  289,010;  287,600;  314,450
356,213;  320,190;  318,600;  292,450
356,292;  305,110;  297,600;  276,450
356,371;  312,110;  331,600;  297,450
356,451;  321,340;  345,600;  294,450
356,530;  346,120;  357,600;  319,450
356,609;  312,770;  306,600;  286,450
356,688;  315,320;  314,600;  298,450
356,767;  304,560;  299,600;  290,450
356,846;  322,380;  346,600;  295,450
356,926;  337,550;  342,600;  361,450
357,005;  314,670;  332,600;  321,450
357,084;  296,960;  318,600;  321,450
357,163;  316,570;  335,600;  341,450
357,242;  317,880;  286,600;  337,450
357,321;  310,340;  322,600;  296,450
357,400;  315,640;  305,600;  310,450
357,479;  313,270;  336,600;  292,450
357,559;  319,630;  325,600;  314,450
357,638;  295,930;  312,600;  292,450
357,717;  307,690;  322,600;  304,450
357,796;  326,670;  348,600;  323,450
357,875;  310,900;  333,600;  316,450
357,954;  310,770;  312,600;  285,450
358,033;  316,140;  311,600;  278,450
358,112;  327,980;  302,600;  300,450
358,191;  307,790;  313,600;  289,450
358,270;  292,490;  266,600;  300,450
358,349;  317,100;  291,600;  324,450
358,428;  321,260;  321,600;  335,450
358,507;  324,620;  348,600;  306,450
358,585;  318,650;  318,600;  326,450
358,664;  330,390;  318,600;  340,450
358,743;  318,530;  293,600;  304,450
358,822;  332,200;  354,600;  329,450
358,901;  305,100;  275,600;  303,450
358,980;  306,570;  308,600;  299,450
359,059;  326,960;  326,600;  326,450
359,138;  326,110;  308,600;  324,450
359,216;  321,530;  320,600;  314,450
359,295;  304,830;  325,600;  329,450
359,374;  327,350;  335,600;  301,450
359,453;  316,240;  340,600;  315,450
359,532;  303,100;  307,600;  310,450
359,610;  318,750;  315,600;  307,450
359,689;  331,500;  324,600;  330,450
359,768;  313,590;  305,600;  294,450
359,847;  303,060;  313,600;  287,450
359,925;  301,680;  303,600;  315,450
360,004;  300,390;  295,600;  289,450
360,083;  314,360;  299,600;  319,450
360,161;  306,970;  314,600;  285,450
360,240;  286,330;  272,600;  289,450
360,319;  317,090;  323,600;  309,450
360,397;  323,090;  313,600;  320,450
360,476;  317,890;  291,600;  325,450
360,555;  344,990;  334,600;  340,450
360,633;  298,090;  287,600;  300,450
360,712;  305,580;  299,600;  264,450
360,790;  330,100;  314,600;  320,450
360,869;  311,810;  297,600;  296,450
360,948;  320,720;  278,600;  334,450
361,026;  297,230;  321,600;  276,450
361,105;  306,440;  305,600;  290,450
361,183;  317,450;  294,600;  286,450
361,262;  303,190;  300,600;  280,450
361,340;  303,180;  318,600;  297,450
361,419;  282,940;  282,600;  250,450
361,497;  340,650;  300,600;  335,450
361,576;  316,190;  292,600;  315,450
361,654;  344,100;  361,600;  322,450
361,733;  289,000;  320,600;  300,450
361,811;  325,940;  320,600;  311,450
361,890;  287,570;  267,600;  289,450
361,968;  314,360;  269,600;  303,450
362,046;  333,390;  334,600;  321,450
362,125;  334,800;  353,600;  326,450
362,203;  316,580;  297,600;  287,450
362,282;  326,400;  319,600;  338,450
362,360;  319,960;  296,600;  307,450
362,438;  313,150;  310,600;  302,450
362,517;  352,990;  346,600;  347,450
362,595;  337,720;  312,600;  351,450
362,673;  335,700;  323,600;  317,450
362,752;  326,130;  349,600;  327,450
362,830;  339,530;  338,600;  349,450
362,908;  317,270;  310,600;  307,450
362,986;  332,180;  335,600;  315,450
363,065;  326,340;  313,600;  344,450
363,143;  358,750;  354,600;  367,450
363,221;  315,580;  302,600;  288,450
363,299;  310,490;  304,600;  309,450
363,378;  322,700;  297,600;  335,450
363,456;  302,170;  286,600;  316,450
363,534;  326,510;  318,600;  323,450
363,612;  327,730;  320,600;  312,450
363,690;  338,960;  319,600;  344,450
363,769;  352,590;  340,600;  345,450
363,847;  331,690;  308,600;  356,450
363,925;  305,660;  282,600;  303,450
364,003;  351,830;  343,600;  348,450
364,081;  338,160;  323,600;  338,450
364,159;  332,870;  325,600;  330,450
364,237;  344,530;  351,600;  326,450
364,315;  326,640;  306,600;  311,450
364,393;  361,190;  363,600;  340,450
364,471;  343,980;  345,600;  315,450
364,549;  350,650;  344,600;  337,450
364,627;  351,230;  339,600;  321,450
364,705;  361,090;  344,600;  299,450
364,783;  426,610;  417,600;  294,450
364,861; 1005,940; 1050,600;  311,450
364,939; 3601,900; 3619,600;  304,450
365,017;  777,170;  723,600;  298,450
365,095;  365,310;  341,600;  327,450
365,173;  375,770;  398,600;  335,450
365,251;  379,600;  356,600;  345,450
365,329;  528,250;  527,600;  344,450
365,407; 1177,530; 1155,600;  315,450
365,485;  461,840;  464,600;  377,450
365,563;  358,180;  354,600;  339,450
365,641;  334,500;  327,600;  316,450
365,719;  337,680;  361,600;  314,450
365,796;  339,550;  329,600;  309,450
365,874;  353,110;  329,600;  354,450
365,952;  316,900;  334,600;  297,450
366,030;  344,520;  311,600;  318,450
366,108;  358,060;  336,600;  325,450
366,185;  627,450;  644,600;  330,450
366,263;  892,910;  880,600;  333,450
366,341;  379,600;  362,600;  310,450
366,419;  338,750;  335,600;  319,450
366,496;  346,320;  347,600;  336,450
366,574;  329,290;  299,600;  321,450
366,652;  351,450;  381,600;  324,450
366,730;  367,340;  336,600;  375,450
366,807;  330,210;  317,600;  335,450
366,885;  326,790;  315,600;  340,450
366,963;  329,670;  305,600;  332,450
367,040;  348,520;  348,600;  348,450
367,118;  323,800;  315,600;  299,450
367,196;  342,160;  322,600;  355,450
367,273;  331,790;  331,600;  352,450
367,351;  330,310;  314,600;  320,450
367,428;  352,880;  351,600;  360,450
367,506;  330,490;  361,600;  305,450
367,584;  359,650;  352,600;  377,450
367,661;  337,260;  329,600;  332,450
367,739;  328,470;  328,600;  328,450
367,816;  321,750;  343,600;  292,450
367,894;  340,430;  368,600;  312,450
367,971;  333,150;  309,600;  328,450
368,049;  349,140;  376,600;  316,450
368,126;  318,660;  329,600;  318,450
368,204;  350,030;  333,600;  342,450
368,281;  354,330;  375,600;  360,450
368,359;  348,440;  352,600;  332,450
368,436;  345,680;  349,600;  336,450
368,514;  347,020;  344,600;  337,450
368,591;  340,960;  344,600;  347,450
368,668;  347,290;  375,600;  336,450
368,746;  355,350;  387,600;  352,450
368,823;  342,870;  338,600;  380,450
368,901;  339,150;  325,600;  328,450
368,978;  352,190;  329,600;  311,450
369,055;  341,170;  339,600;  332,450
369,133;  366,340;  371,600;  352,450
369,210;  338,120;  328,600;  366,450
369,287;  365,280;  364,600;  366,450
369,365;  365,720;  380,600;  367,450
369,442;  343,660;  347,600;  350,450
369,519;  304,200;  321,600;  298,450
369,596;  367,930;  359,600;  339,450
369,674;  333,980;  327,600;  283,450
369,751;  364,250;  337,600;  371,450
369,828;  350,130;  351,600;  337,450
369,905;  351,140;  358,600;  377,450
369,983;  330,130;  305,600;  327,450
370,060;  330,020;  323,600;  301,450
370,137;  366,690;  394,600;  401,450
370,214;  336,670;  321,600;  374,450
370,291;  344,800;  350,600;  340,450
370,368;  345,690;  356,600;  383,450
370,446;  331,450;  301,600;  350,450
370,523;  328,670;  360,600;  316,450
370,600;  352,100;  368,600;  319,450
370,677;  344,040;  348,600;  332,450
370,754;  340,620;  343,600;  331,450
370,831;  340,750;  352,600;  343,450
370,908;  367,550;  347,600;  374,450
370,985;  324,390;  333,600;  281,450
371,062;  344,520;  341,600;  344,450
371,139;  360,500;  361,600;  363,450
371,216;  357,840;  351,600;  347,450
371,293;  350,810;  329,600;  359,450
371,370;  325,820;  322,600;  314,450
371,447;  347,130;  346,600;  342,450
371,524;  372,480;  346,600;  357,450
371,601;  369,260;  371,600;  341,450
371,678;  373,600;  350,600;  355,450
371,755;  345,810;  366,600;  335,450
371,832;  367,390;  370,600;  375,450
371,909;  339,480;  370,600;  318,450
371,986;  376,260;  371,600;  394,450
372,063;  342,740;  324,600;  329,450
372,140;  353,040;  342,600;  359,450
372,216;  357,290;  356,600;  331,450
372,293;  342,010;  310,600;  347,450
372,370;  369,270;  375,600;  357,450
372,447;  355,930;  329,600;  372,450
372,524;  347,530;  350,600;  371,450
372,601;  351,970;  369,600;  321,450
372,677;  337,770;  344,600;  333,450
372,754;  343,990;  355,600;  360,450
372,831;  351,990;  356,600;  354,450
372,908;  364,890;  380,600;  385,450
372,984;  350,390;  362,600;  356,450
373,061;  339,540;  317,600;  334,450
373,138;  348,970;  367,600;  366,450
373,215;  343,890;  329,600;  317,450
373,291;  348,700;  347,600;  356,450
373,368;  348,850;  378,600;  362,450
373,445;  345,470;  374,600;  345,450
373,521;  350,210;  355,600;  341,450
373,598;  340,220;  354,600;  314,450
373,675;  331,350;  335,600;  358,450
373,751;  345,430;  336,600;  357,450
373,828;  341,180;  338,600;  346,450
373,904;  387,890;  409,600;  394,450
373,981;  326,990;  340,600;  337,450
374,057;  351,210;  343,600;  341,450
374,134;  329,940;  339,600;  316,450
374,211;  344,500;  330,600;  339,450
374,287;  334,220;  336,600;  339,450
374,364;  360,160;  379,600;  370,450
374,440;  316,800;  279,600;  284,450
374,517;  359,600;  367,600;  360,450
374,593;  322,480;  326,600;  299,450
374,670;  340,060;  335,600;  311,450
374,746;  345,450;  347,600;  339,450
374,823;  365,420;  389,600;  364,450
374,899;  364,320;  353,600;  394,450
374,975;  336,380;  336,600;  333,450
375,052;  322,340;  327,600;  327,450
375,128;  322,960;  281,600;  339,450
375,205;  354,890;  346,600;  378,450
375,281;  331,050;  294,600;  331,450
375,357;  361,220;  371,600;  352,450
375,434;  332,900;  313,600;  355,450
375,510;  349,620;  354,600;  323,450
375,586;  345,620;  356,600;  351,450
375,663;  320,580;  314,600;  307,450
375,739;  358,130;  355,600;  380,450
375,815;  340,490;  340,600;  317,450
375,892;  342,430;  340,600;  341,450
375,968;  334,230;  313,600;  325,450
376,044;  336,600;  370,600;  333,450
376,120;  336,180;  311,600;  364,450
376,197;  349,600;  361,600;  328,450
376,273;  337,800;  347,600;  334,450
376,349;  378,460;  386,600;  368,450
376,425;  361,690;  378,600;  336,450
376,501;  345,660;  329,600;  348,450
376,578;  357,000;  332,600;  426,450
376,654;  380,210;  393,600;  365,450
376,730;  358,680;  340,600;  352,450
376,806;  370,220;  346,600;  382,450
376,882;  374,230;  376,600;  332,450
376,958;  373,610;  367,600;  347,450
377,034;  316,340;  320,600;  296,450
377,111;  366,330;  393,600;  358,450
377,187;  389,750;  410,600;  383,450
377,263;  381,680;  397,600;  372,450
377,339;  344,820;  341,600;  319,450
377,415;  361,550;  339,600;  356,450
377,491;  342,350;  362,600;  325,450
377,567;  356,530;  340,600;  369,450
377,643;  377,260;  376,600;  362,450
377,719;  366,950;  368,600;  351,450
377,795;  344,130;  313,600;  350,450
377,871;  363,710;  366,600;  386,450
377,947;  345,580;  343,600;  352,450
378,023;  345,620;  355,600;  339,450
378,099;  346,330;  325,600;  367,450
378,174;  371,220;  364,600;  365,450
378,250;  361,540;  372,600;  389,450
378,326;  368,620;  369,600;  382,450
378,402;  359,380;  359,600;  343,450
378,478;  361,180;  340,600;  355,450
378,554;  373,820;  347,600;  374,450
378,630;  361,270;  369,600;  336,450
378,706;  357,100;  364,600;  321,450
378,781;  391,020;  387,600;  385,450
378,857;  364,780;  359,600;  347,450
378,933;  359,760;  359,600;  335,450
379,009;  347,590;  346,600;  342,450
379,085;  390,940;  419,600;  384,450
379,160;  377,450;  381,600;  366,450
379,236;  374,530;  359,600;  361,450
379,312;  360,190;  337,600;  365,450
379,387;  349,920;  372,600;  349,450
379,463;  362,100;  355,600;  344,450
379,539;  369,670;  408,600;  387,450
379,615;  353,050;  337,600;  364,450
379,690;  395,170;  420,600;  410,450
379,766;  375,240;  389,600;  370,450
379,842;  386,320;  385,600;  366,450
379,917;  384,920;  389,600;  369,450
379,993;  368,110;  370,600;  358,450
380,068;  359,140;  341,600;  349,450
380,144;  380,360;  398,600;  393,450
380,220;  382,780;  388,600;  391,450
380,295;  350,250;  356,600;  356,450
380,371;  358,200;  358,600;  361,450
380,446;  376,080;  418,600;  376,450
380,522;  346,270;  340,600;  360,450
380,597;  356,760;  377,600;  349,450
380,673;  395,890;  395,600;  384,450
380,748;  354,720;  338,600;  344,450
380,824;  364,230;  364,600;  362,450
380,899;  385,800;  371,600;  364,450
380,975;  363,130;  388,600;  402,450
381,050;  349,810;  363,600;  336,450
381,126;  369,270;  370,600;  362,450
381,201;  401,180;  407,600;  405,450
381,277;  372,190;  367,600;  390,450
381,352;  384,450;  389,600;  377,450
381,427;  372,510;  359,600;  370,450
381,503;  377,770;  394,600;  377,450
381,578;  363,170;  363,600;  360,450
381,653;  366,870;  381,600;  387,450
381,729;  358,740;  346,600;  360,450
381,804;  366,320;  373,600;  375,450
381,879;  380,650;  380,600;  366,450
381,955;  353,870;  343,600;  346,450
382,030;  353,060;  346,600;  339,450
382,105;  371,880;  372,600;  372,450
382,181;  367,540;  382,600;  367,450
382,256;  374,620;  373,600;  383,450
382,331;  372,890;  371,600;  375,450
382,406;  349,470;  368,600;  343,450
382,482;  362,790;  371,600;  380,450
382,557;  361,190;  362,600;  335,450
382,632;  369,910;  364,600;  365,450
382,707;  359,760;  393,600;  349,450
382,782;  367,510;  395,600;  385,450
382,857;  359,710;  373,600;  356,450
382,933;  352,120;  354,600;  349,450
383,008;  340,480;  325,600;  336,450
383,083;  375,750;  382,600;  360,450
383,158;  377,960;  375,600;  368,450
383,233;  358,880;  368,600;  362,450
383,308;  357,180;  360,600;  326,450
383,383;  389,450;  394,600;  390,450
383,458;  356,650;  344,600;  340,450
383,533;  342,320;  331,600;  334,450
383,608;  388,950;  367,600;  381,450
383,683;  383,680;  381,600;  367,450
383,758;  379,050;  398,600;  353,450
383,833;  367,590;  343,600;  350,450
383,908;  343,740;  321,600;  367,450
383,983;  345,030;  365,600;  328,450
384,058;  357,510;  340,600;  383,450
384,133;  367,350;  372,600;  376,450
384,208;  376,160;  395,600;  375,450
384,283;  350,060;  362,600;  321,450
384,358;  381,230;  392,600;  390,450
384,433;  357,840;  347,600;  341,450
384,508;  366,120;  339,600;  338,450
384,583;  372,000;  337,600;  355,450
384,658;  370,650;  352,600;  366,450
384,732;  335,000;  329,600;  319,450
384,807;  366,140;  347,600;  366,450
384,882;  370,800;  391,600;  349,450
384,957;  370,110;  348,600;  345,450
385,032;  372,150;  383,600;  373,450
385,106;  367,810;  342,600;  369,450
385,181;  354,400;  353,600;  359,450
385,256;  363,980;  367,600;  336,450
385,331;  371,050;  375,600;  364,450
385,405;  381,450;  383,600;  400,450
385,480;  363,000;  362,600;  372,450
385,555;  399,460;  402,600;  399,450
385,630;  391,660;  369,600;  370,450
385,704;  371,440;  353,600;  390,450
385,779;  363,610;  363,600;  368,450
385,854;  365,010;  364,600;  380,450
385,928;  364,190;  348,600;  365,450
386,003;  401,320;  390,600;  397,450
386,078;  373,320;  374,600;  369,450
386,152;  399,500;  391,600;  412,450
386,227;  358,510;  347,600;  354,450
386,301;  378,710;  389,600;  348,450
386,376;  353,780;  352,600;  346,450
386,450;  379,760;  356,600;  374,450
386,525;  373,370;  357,600;  376,450
386,600;  387,650;  367,600;  381,450
386,674;  362,850;  374,600;  364,450
386,749;  379,290;  395,600;  359,450
386,823;  379,110;  363,600;  377,450
386,898;  382,610;  386,600;  374,450
386,972;  381,060;  383,600;  354,450
387,047;  373,770;  368,600;  364,450
387,121;  377,340;  375,600;  363,450
387,195;  356,390;  359,600;  352,450
387,270;  385,390;  384,600;  385,450
387,344;  404,560;  429,600;  393,450
387,419;  390,950;  367,600;  412,450
387,493;  374,590;  371,600;  377,450
387,567;  354,890;  351,600;  336,450
387,642;  402,370;  383,600;  402,450
387,716;  374,730;  368,600;  378,450
387,790;  369,370;  337,600;  366,450
387,865;  373,150;  351,600;  364,450
387,939;  400,350;  405,600;  406,450
388,013;  385,520;  377,600;  417,450
388,088;  368,470;  361,600;  363,450
388,162;  369,260;  366,600;  355,450
388,236;  373,970;  381,600;  416,450
388,310;  361,970;  368,600;  361,450
388,385;  399,040;  324,600;  400,450
388,459;  373,640;  362,600;  379,450
388,533;  359,460;  378,600;  365,450
388,607;  367,110;  374,600;  378,450
388,682;  373,520;  369,600;  394,450
388,756;  356,750;  375,600;  378,450
388,830;  389,010;  378,600;  413,450
388,904;  377,220;  382,600;  382,450
388,978;  365,600;  368,600;  361,450
389,052;  372,840;  390,600;  343,450
389,126;  370,740;  353,600;  387,450
389,200;  375,110;  376,600;  362,450
389,275;  367,280;  382,600;  389,450
389,349;  372,660;  405,600;  380,450
389,423;  368,720;  380,600;  369,450
389,497;  379,380;  426,600;  377,450
389,571;  366,360;  391,600;  375,450
389,645;  376,590;  378,600;  388,450
389,719;  371,140;  384,600;  388,450
389,793;  343,470;  341,600;  322,450
389,867;  398,790;  410,600;  386,450
389,941;  376,720;  367,600;  369,450
390,015;  363,620;  348,600;  372,450
390,089;  358,010;  369,600;  344,450
390,163;  372,230;  368,600;  375,450
390,237;  375,470;  356,600;  361,450
390,310;  379,680;  393,600;  366,450
390,384;  381,510;  383,600;  344,450
390,458;  400,540;  414,600;  432,450
390,532;  383,740;  401,600;  395,450
390,606;  366,250;  361,600;  328,450
390,680;  365,790;  354,600;  373,450
390,754;  365,480;  373,600;  342,450
390,827;  389,210;  382,600;  388,450
390,901;  389,760;  362,600;  377,450
390,975;  369,060;  366,600;  368,450
391,049;  363,650;  374,600;  392,450
391,123;  358,840;  342,600;  367,450
391,196;  366,760;  344,600;  368,450
391,270;  374,490;  372,600;  366,450
391,344;  356,340;  384,600;  374,450
391,418;  369,890;  368,600;  366,450
391,491;  358,080;  362,600;  365,450
391,565;  361,000;  341,600;  346,450
391,639;  393,450;  379,600;  381,450
391,712;  382,480;  373,600;  385,450
391,786;  381,370;  401,600;  429,450
391,860;  369,110;  354,600;  354,450
391,933;  370,590;  366,600;  333,450
392,007;  376,540;  393,600;  364,450
392,081;  396,110;  404,600;  366,450
392,154;  381,420;  366,600;  394,450
392,228;  392,460;  392,600;  387,450
392,301;  376,930;  366,600;  402,450
392,375;  390,640;  394,600;  406,450
392,448;  381,540;  397,600;  375,450
392,522;  376,230;  382,600;  383,450
392,595;  371,980;  389,600;  365,450
392,669;  377,320;  386,600;  367,450
392,742;  393,420;  378,600;  401,450
392,816;  395,280;  376,600;  383,450
392,889;  394,120;  392,600;  401,450
392,963;  407,220;  400,600;  382,450
393,036;  384,370;  366,600;  401,450
393,110;  393,310;  388,600;  376,450
393,183;  401,860;  407,600;  399,450
393,257;  416,580;  437,600;  408,450
393,330;  366,740;  373,600;  391,450
393,403;  389,190;  410,600;  372,450
393,477;  356,780;  347,600;  364,450
393,550;  390,530;  413,600;  387,450
393,623;  387,330;  374,600;  402,450
393,697;  404,140;  404,600;  411,450
393,770;  376,350;  386,600;  364,450
393,843;  405,200;  419,600;  412,450
393,917;  394,140;  400,600;  407,450
393,990;  408,820;  378,600;  395,450
394,063;  389,160;  403,600;  375,450
394,136;  389,760;  390,600;  390,450
394,210;  392,140;  393,600;  380,450
394,283;  403,340;  385,600;  395,450
394,356;  393,690;  410,600;  373,450
394,429;  395,180;  399,600;  357,450
394,502;  383,920;  404,600;  373,450
394,576;  413,980;  416,600;  404,450
394,649;  380,110;  376,600;  381,450
394,722;  402,470;  390,600;  390,450
394,795;  405,960;  413,600;  406,450
394,868;  385,350;  369,600;  390,450
394,941;  371,270;  371,600;  368,450
395,014;  417,370;  419,600;  416,450
395,088;  398,700;  404,600;  391,450
395,161;  397,830;  402,600;  399,450
395,234;  409,360;  390,600;  397,450
395,307;  399,000;  413,600;  388,450
395,380;  384,820;  393,600;  392,450
395,453;  434,510;  439,600;  425,450
395,526;  411,580;  430,600;  407,450
395,599;  427,290;  422,600;  432,450
395,672;  393,700;  378,600;  408,450
395,745;  415,540;  400,600;  390,450
395,818;  376,620;  385,600;  376,450
395,891;  385,180;  408,600;  379,450
395,964;  412,550;  398,600;  436,450
396,036;  384,160;  400,600;  390,450
396,109;  393,180;  399,600;  381,450
396,182;  394,050;  392,600;  382,450
396,255;  397,110;  417,600;  383,450
396,328;  410,730;  412,600;  432,450
396,401;  372,500;  363,600;  381,450
396,474;  379,740;  399,600;  360,450
396,547;  396,740;  411,600;  417,450
396,619;  390,630;  384,600;  393,450
396,692;  405,350;  371,600;  354,450
396,765;  371,720;  375,600;  376,450
396,838;  386,490;  367,600;  390,450
396,911;  371,740;  363,600;  352,450
396,983;  390,990;  385,600;  396,450
397,056;  371,170;  375,600;  367,450
397,129;  385,940;  369,600;  368,450
397,201;  389,230;  413,600;  395,450
397,274;  389,210;  379,600;  382,450
397,347;  360,340;  364,600;  378,450
397,420;  383,810;  373,600;  379,450
397,492;  385,700;  404,600;  380,450
397,565;  373,850;  372,600;  365,450
397,637;  370,260;  371,600;  361,450
397,710;  347,840;  349,600;  341,450
397,783;  409,120;  444,600;  401,450
397,855;  342,450;  363,600;  346,450
397,928;  368,970;  381,600;  330,450
398,000;  393,950;  369,600;  384,450
398,073;  381,870;  376,600;  372,450
398,146;  375,690;  365,600;  358,450
398,218;  392,630;  417,600;  363,450
398,291;  386,850;  398,600;  385,450
398,363;  374,940;  370,600;  358,450
398,436;  367,820;  369,600;  360,450
398,508;  382,310;  378,600;  369,450
398,581;  376,730;  368,600;  367,450
398,653;  373,740;  318,600;  382,450
398,726;  377,020;  376,600;  371,450
398,798;  381,940;  390,600;  376,450
398,870;  394,160;  374,600;  374,450
398,943;  365,240;  371,600;  357,450
399,015;  364,460;  362,600;  383,450
399,088;  386,350;  377,600;  373,450
399,160;  364,990;  370,600;  348,450
399,232;  350,150;  332,600;  349,450
399,305;  366,480;  379,600;  362,450
399,377;  374,870;  350,600;  343,450
399,449;  382,150;  398,600;  388,450
399,522;  420,870;  442,600;  416,450
399,594;  362,490;  359,600;  346,450
399,666;  381,860;  393,600;  361,450
399,738;  372,620;  378,600;  375,450
399,811;  371,980;  370,600;  388,450
399,883;  387,500;  392,600;  378,450
399,955;  388,650;  429,600;  331,450
400,027;  344,850;  342,600;  364,450
400,100;  403,880;  402,600;  427,450
400,172;  343,710;  360,600;  354,450
400,244;  373,560;  369,600;  361,450
400,316;  389,630;  396,600;  381,450
400,388;  387,630;  408,600;  368,450
400,460;  360,640;  350,600;  359,450
400,532;  346,360;  329,600;  337,450
400,605;  379,160;  378,600;  368,450
400,677;  400,650;  389,600;  380,450
400,749;  393,530;  403,600;  406,450
400,821;  385,050;  384,600;  385,450
400,893;  373,470;  364,600;  384,450
400,965;  387,200;  390,600;  380,450
401,037;  383,000;  376,600;  402,450
401,109;  369,210;  363,600;  365,450
401,181;  377,860;  383,600;  398,450

