p10promedio
Integration time [ms]:   0,150
Averaging Nr. [scans]: 10
Smoothing Nr. [pixels]: 0
Data measured with spectrometer [name]: 7416147SP
Wave   ;Sample   ;Dark     ;Reference
[nm]   ;[counts] ;[counts] ;[counts] 

230,218;  287,925;  284,600;  274,450
230,311;  310,925;  306,600;  296,450
230,404;  315,925;  298,600;  326,450
230,497;  321,625;  295,600;  309,450
230,591;  322,825;  342,600;  328,450
230,684;  327,325;  317,600;  333,450
230,777;  304,825;  318,600;  312,450
230,870;  315,925;  330,600;  321,450
230,964;  305,825;  321,600;  306,450
231,057;  336,425;  306,600;  332,450
231,150;  336,425;  320,600;  304,450
231,243;  342,025;  310,600;  310,450
231,336;  320,425;  334,600;  326,450
231,430;  314,225;  320,600;  279,450
231,523;  318,425;  346,600;  304,450
231,616;  304,125;  297,600;  290,450
231,709;  342,225;  328,600;  315,450
231,802;  312,525;  280,600;  295,450
231,895;  313,125;  293,600;  313,450
231,988;  318,925;  312,600;  320,450
232,082;  311,525;  316,600;  281,450
232,175;  299,625;  289,600;  279,450
232,268;  313,725;  319,600;  301,450
232,361;  313,825;  288,600;  264,450
232,454;  336,925;  297,600;  320,450
232,547;  330,225;  333,600;  272,450
232,640;  297,225;  314,600;  287,450
232,733;  326,725;  297,600;  300,450
232,826;  304,925;  303,600;  270,450
232,919;  325,825;  318,600;  294,450
233,012;  298,225;  322,600;  292,450
233,105;  316,725;  318,600;  283,450
233,199;  317,625;  324,600;  298,450
233,292;  292,125;  293,600;  307,450
233,385;  276,725;  262,600;  233,450
233,478;  307,525;  302,600;  272,450
233,571;  335,125;  314,600;  293,450
233,664;  308,225;  341,600;  283,450
233,757;  285,325;  254,600;  231,450
233,850;  291,825;  272,600;  248,450
233,943;  298,125;  298,600;  272,450
234,035;  307,825;  318,600;  292,450
234,128;  280,925;  282,600;  265,450
234,221;  302,025;  310,600;  293,450
234,314;  302,125;  333,600;  318,450
234,407;  306,025;  338,600;  286,450
234,500;  292,825;  286,600;  280,450
234,593;  303,225;  280,600;  290,450
234,686;  304,125;  276,600;  256,450
234,779;  297,525;  270,600;  275,450
234,872;  289,425;  276,600;  261,450
234,965;  290,325;  298,600;  286,450
235,058;  288,225;  269,600;  263,450
235,150;  293,725;  311,600;  286,450
235,243;  296,925;  280,600;  311,450
235,336;  317,625;  317,600;  296,450
235,429;  276,925;  258,600;  241,450
235,522;  332,825;  352,600;  293,450
235,615;  274,725;  309,600;  253,450
235,707;  293,425;  289,600;  277,450
235,800;  294,125;  302,600;  268,450
235,893;  299,025;  328,600;  262,450
235,986;  308,825;  305,600;  312,450
236,079;  285,025;  310,600;  308,450
236,171;  281,225;  272,600;  270,450
236,264;  316,625;  310,600;  282,450
236,357;  308,625;  289,600;  297,450
236,450;  325,825;  314,600;  308,450
236,542;  275,525;  286,600;  258,450
236,635;  321,425;  319,600;  287,450
236,728;  284,025;  276,600;  273,450
236,821;  286,025;  270,600;  268,450
236,913;  290,325;  326,600;  268,450
237,006;  282,925;  300,600;  257,450
237,099;  301,025;  289,600;  271,450
237,191;  311,825;  345,600;  288,450
237,284;  280,725;  256,600;  282,450
237,377;  303,125;  294,600;  312,450
237,470;  293,525;  291,600;  256,450
237,562;  292,425;  266,600;  261,450
237,655;  339,225;  342,600;  294,450
237,747;  306,825;  325,600;  263,450
237,840;  323,025;  292,600;  302,450
237,933;  294,625;  327,600;  284,450
238,025;  309,525;  338,600;  306,450
238,118;  288,425;  306,600;  287,450
238,211;  277,725;  282,600;  227,450
238,303;  280,325;  277,600;  273,450
238,396;  274,725;  289,600;  270,450
238,488;  302,725;  300,600;  281,450
238,581;  293,425;  306,600;  235,450
238,673;  296,325;  304,600;  273,450
238,766;  291,525;  268,600;  282,450
238,859;  280,225;  282,600;  277,450
238,951;  293,825;  295,600;  280,450
239,044;  284,225;  270,600;  283,450
239,136;  279,925;  269,600;  284,450
239,229;  289,425;  297,600;  291,450
239,321;  288,125;  262,600;  248,450
239,414;  295,225;  289,600;  288,450
239,506;  296,425;  280,600;  267,450
239,599;  326,425;  352,600;  292,450
239,691;  292,225;  306,600;  269,450
239,784;  308,425;  296,600;  288,450
239,876;  296,525;  280,600;  288,450
239,969;  297,925;  287,600;  281,450
240,061;  273,825;  277,600;  262,450
240,153;  276,525;  260,600;  278,450
240,246;  291,025;  295,600;  292,450
240,338;  314,325;  309,600;  324,450
240,431;  282,025;  277,600;  282,450
240,523;  286,325;  300,600;  237,450
240,615;  307,225;  293,600;  321,450
240,708;  320,925;  355,600;  292,450
240,800;  287,925;  302,600;  288,450
240,893;  268,925;  274,600;  261,450
240,985;  299,825;  321,600;  270,450
241,077;  271,625;  268,600;  262,450
241,170;  308,025;  313,600;  286,450
241,262;  296,725;  284,600;  284,450
241,354;  258,625;  246,600;  244,450
241,447;  290,425;  286,600;  271,450
241,539;  271,925;  295,600;  247,450
241,631;  319,825;  312,600;  279,450
241,724;  265,325;  261,600;  246,450
241,816;  282,125;  258,600;  264,450
241,908;  290,625;  278,600;  263,450
242,000;  291,025;  283,600;  263,450
242,093;  283,725;  303,600;  261,450
242,185;  290,925;  306,600;  269,450
242,277;  286,825;  282,600;  242,450
242,369;  296,425;  278,600;  269,450
242,462;  281,025;  271,600;  247,450
242,554;  287,825;  253,600;  266,450
242,646;  287,425;  282,600;  270,450
242,738;  313,825;  320,600;  281,450
242,830;  264,125;  292,600;  230,450
242,923;  306,425;  309,600;  303,450
243,015;  280,025;  288,600;  269,450
243,107;  278,225;  280,600;  253,450
243,199;  278,625;  309,600;  300,450
243,291;  284,025;  319,600;  253,450
243,383;  260,725;  240,600;  273,450
243,476;  269,525;  257,600;  282,450
243,568;  303,125;  293,600;  284,450
243,660;  289,525;  260,600;  268,450
243,752;  287,225;  305,600;  270,450
243,844;  304,925;  299,600;  284,450
243,936;  289,325;  316,600;  299,450
244,028;  305,025;  332,600;  290,450
244,120;  265,125;  267,600;  230,450
244,212;  300,025;  298,600;  289,450
244,305;  258,125;  267,600;  270,450
244,397;  293,025;  315,600;  267,450
244,489;  318,225;  303,600;  285,450
244,581;  309,725;  301,600;  279,450
244,673;  280,925;  286,600;  252,450
244,765;  290,125;  277,600;  293,450
244,857;  301,225;  303,600;  251,450
244,949;  292,725;  305,600;  282,450
245,041;  247,925;  250,600;  223,450
245,133;  303,425;  294,600;  292,450
245,225;  289,325;  258,600;  248,450
245,317;  294,925;  253,600;  267,450
245,409;  268,825;  282,600;  263,450
245,501;  289,425;  286,600;  265,450
245,593;  293,025;  328,600;  278,450
245,685;  296,325;  330,600;  286,450
245,776;  276,625;  298,600;  267,450
245,868;  276,325;  308,600;  263,450
245,960;  268,525;  242,600;  252,450
246,052;  307,725;  291,600;  307,450
246,144;  295,325;  282,600;  285,450
246,236;  293,825;  296,600;  257,450
246,328;  287,025;  285,600;  287,450
246,420;  284,625;  282,600;  270,450
246,512;  311,925;  303,600;  295,450
246,604;  284,725;  280,600;  278,450
246,695;  272,425;  275,600;  268,450
246,787;  304,825;  288,600;  299,450
246,879;  299,825;  296,600;  275,450
246,971;  296,925;  305,600;  285,450
247,063;  287,725;  281,600;  253,450
247,155;  303,125;  295,600;  240,450
247,246;  282,325;  305,600;  285,450
247,338;  293,725;  297,600;  287,450
247,430;  311,125;  298,600;  312,450
247,522;  299,825;  294,600;  294,450
247,613;  301,425;  287,600;  278,450
247,705;  301,625;  302,600;  286,450
247,797;  320,125;  322,600;  301,450
247,889;  305,825;  294,600;  286,450
247,980;  308,525;  318,600;  273,450
248,072;  328,025;  315,600;  275,450
248,164;  350,525;  368,600;  297,450
248,256;  296,425;  280,600;  302,450
248,347;  320,225;  312,600;  275,450
248,439;  291,225;  302,600;  260,450
248,531;  317,425;  301,600;  297,450
248,622;  323,425;  315,600;  318,450
248,714;  279,325;  303,600;  257,450
248,806;  304,625;  301,600;  287,450
248,897;  305,625;  266,600;  290,450
248,989;  268,025;  260,600;  246,450
249,081;  295,825;  291,600;  305,450
249,172;  308,825;  289,600;  264,450
249,264;  284,125;  310,600;  303,450
249,356;  286,125;  274,600;  253,450
249,447;  299,125;  287,600;  283,450
249,539;  289,425;  289,600;  288,450
249,630;  300,825;  296,600;  286,450
249,722;  332,225;  310,600;  305,450
249,813;  301,025;  302,600;  256,450
249,905;  290,325;  319,600;  291,450
249,997;  301,025;  270,600;  248,450
250,088;  293,625;  295,600;  285,450
250,180;  299,425;  280,600;  288,450
250,271;  296,825;  296,600;  268,450
250,363;  324,525;  329,600;  307,450
250,454;  293,625;  268,600;  238,450
250,546;  306,125;  271,600;  272,450
250,637;  280,125;  285,600;  242,450
250,729;  288,625;  267,600;  250,450
250,820;  306,925;  306,600;  297,450
250,912;  294,925;  299,600;  243,450
251,003;  294,225;  285,600;  296,450
251,095;  301,525;  296,600;  273,450
251,186;  291,725;  269,600;  253,450
251,277;  295,025;  276,600;  290,450
251,369;  289,025;  295,600;  275,450
251,460;  293,225;  272,600;  272,450
251,552;  309,425;  293,600;  292,450
251,643;  303,625;  292,600;  276,450
251,735;  296,225;  303,600;  241,450
251,826;  300,325;  313,600;  259,450
251,917;  319,625;  325,600;  258,450
252,009;  316,725;  338,600;  254,450
252,100;  334,525;  343,600;  266,450
252,191;  348,025;  337,600;  260,450
252,283;  339,325;  328,600;  299,450
252,374;  376,825;  372,600;  289,450
252,465;  392,525;  390,600;  301,450
252,557;  385,625;  393,600;  251,450
252,648;  390,125;  378,600;  258,450
252,739;  436,925;  397,600;  267,450
252,831;  423,525;  439,600;  250,450
252,922;  464,525;  440,600;  266,450
253,013;  504,525;  520,600;  241,450
253,104;  575,725;  576,600;  255,450
253,196;  671,725;  712,600;  265,450
253,287;  838,925;  807,600;  289,450
253,378; 1204,625; 1233,600;  257,450
253,469; 4249,425; 4083,600;  246,450
253,561;23014,525;23239,600;  253,450
253,652;41993,523;42949,602;  272,450
253,743; 5681,325; 5893,600;  210,450
253,834;  619,625;  622,600;  260,450
253,926;  497,125;  531,600;  249,450
254,017;  491,425;  459,600;  280,450
254,108;  445,525;  528,600;  290,450
254,199;  435,325;  418,600;  277,450
254,290;  438,725;  380,600;  290,450
254,381;  424,625;  429,600;  276,450
254,472;  415,025;  437,600;  250,450
254,564;  421,025;  411,600;  327,450
254,655;  392,025;  392,600;  304,450
254,746;  344,725;  345,600;  225,450
254,837;  379,425;  372,600;  282,450
254,928;  354,125;  368,600;  247,450
255,019;  356,325;  375,600;  281,450
255,110;  361,525;  357,600;  302,450
255,201;  352,525;  318,600;  284,450
255,292;  367,725;  381,600;  271,450
255,383;  344,225;  347,600;  265,450
255,474;  345,225;  329,600;  248,450
255,566;  343,525;  366,600;  271,450
255,657;  340,425;  350,600;  306,450
255,748;  300,225;  292,600;  235,450
255,839;  313,025;  331,600;  282,450
255,930;  318,925;  292,600;  302,450
256,021;  334,025;  336,600;  297,450
256,112;  310,225;  296,600;  257,450
256,203;  332,725;  339,600;  315,450
256,294;  323,425;  321,600;  265,450
256,384;  307,225;  279,600;  261,450
256,475;  309,225;  289,600;  284,450
256,566;  301,225;  297,600;  274,450
256,657;  282,725;  291,600;  267,450
256,748;  296,025;  302,600;  280,450
256,839;  291,125;  281,600;  274,450
256,930;  294,225;  278,600;  260,450
257,021;  314,725;  328,600;  283,450
257,112;  320,025;  311,600;  327,450
257,203;  263,925;  268,600;  240,450
257,294;  272,925;  276,600;  257,450
257,385;  294,425;  284,600;  272,450
257,475;  288,425;  277,600;  255,450
257,566;  308,525;  313,600;  267,450
257,657;  289,125;  339,600;  264,450
257,748;  286,525;  283,600;  252,450
257,839;  295,425;  319,600;  306,450
257,930;  299,025;  276,600;  275,450
258,020;  280,725;  278,600;  281,450
258,111;  280,525;  285,600;  256,450
258,202;  290,725;  309,600;  258,450
258,293;  285,525;  267,600;  255,450
258,384;  310,725;  329,600;  295,450
258,474;  287,825;  296,600;  244,450
258,565;  279,525;  250,600;  252,450
258,656;  302,225;  306,600;  257,450
258,747;  277,925;  293,600;  255,450
258,837;  269,425;  266,600;  231,450
258,928;  283,025;  247,600;  280,450
259,019;  272,225;  272,600;  264,450
259,109;  273,625;  264,600;  254,450
259,200;  293,825;  292,600;  291,450
259,291;  270,925;  246,600;  297,450
259,381;  282,325;  309,600;  264,450
259,472;  302,225;  299,600;  272,450
259,563;  308,725;  307,600;  273,450
259,653;  282,225;  281,600;  247,450
259,744;  273,225;  280,600;  260,450
259,835;  301,825;  284,600;  274,450
259,925;  276,625;  257,600;  276,450
260,016;  298,325;  303,600;  282,450
260,107;  265,425;  264,600;  265,450
260,197;  287,425;  279,600;  258,450
260,288;  274,725;  263,600;  273,450
260,378;  274,325;  274,600;  244,450
260,469;  295,425;  299,600;  273,450
260,560;  269,125;  267,600;  276,450
260,650;  272,025;  269,600;  265,450
260,741;  274,225;  279,600;  256,450
260,831;  281,825;  246,600;  276,450
260,922;  271,325;  271,600;  258,450
261,012;  284,825;  271,600;  256,450
261,103;  297,725;  320,600;  294,450
261,193;  309,925;  317,600;  320,450
261,284;  271,425;  256,600;  254,450
261,374;  306,825;  295,600;  253,450
261,465;  286,525;  321,600;  304,450
261,555;  282,525;  271,600;  275,450
261,646;  298,625;  290,600;  300,450
261,736;  295,125;  265,600;  287,450
261,827;  288,825;  293,600;  256,450
261,917;  310,525;  294,600;  344,450
262,007;  281,625;  269,600;  289,450
262,098;  291,925;  334,600;  256,450
262,188;  330,925;  316,600;  305,450
262,279;  300,125;  290,600;  292,450
262,369;  284,225;  276,600;  282,450
262,459;  286,725;  262,600;  260,450
262,550;  306,125;  314,600;  290,450
262,640;  266,425;  261,600;  274,450
262,731;  297,925;  302,600;  298,450
262,821;  306,825;  287,600;  323,450
262,911;  301,025;  312,600;  268,450
263,002;  292,125;  278,600;  271,450
263,092;  302,825;  292,600;  309,450
263,182;  284,325;  280,600;  257,450
263,273;  283,925;  277,600;  261,450
263,363;  305,225;  309,600;  284,450
263,453;  266,525;  266,600;  259,450
263,543;  282,825;  289,600;  326,450
263,634;  265,925;  263,600;  262,450
263,724;  292,925;  278,600;  276,450
263,814;  313,425;  304,600;  288,450
263,904;  284,625;  270,600;  267,450
263,995;  321,425;  306,600;  321,450
264,085;  290,025;  301,600;  259,450
264,175;  293,725;  284,600;  306,450
264,265;  317,625;  305,600;  298,450
264,356;  266,025;  260,600;  289,450
264,446;  318,325;  296,600;  298,450
264,536;  290,325;  270,600;  297,450
264,626;  317,525;  315,600;  295,450
264,716;  300,925;  330,600;  277,450
264,806;  321,225;  327,600;  306,450
264,897;  254,525;  255,600;  273,450
264,987;  307,725;  310,600;  286,450
265,077;  311,125;  297,600;  285,450
265,167;  369,225;  394,600;  346,450
265,257;  326,325;  333,600;  273,450
265,347;  331,725;  331,600;  286,450
265,437;  313,525;  304,600;  289,450
265,527;  305,225;  314,600;  292,450
265,617;  278,825;  292,600;  265,450
265,708;  312,725;  330,600;  308,450
265,798;  305,725;  315,600;  301,450
265,888;  292,825;  275,600;  270,450
265,978;  288,825;  274,600;  242,450
266,068;  306,125;  291,600;  316,450
266,158;  286,625;  288,600;  254,450
266,248;  275,725;  305,600;  248,450
266,338;  313,125;  307,600;  293,450
266,428;  299,725;  294,600;  259,450
266,518;  318,625;  321,600;  320,450
266,608;  301,225;  245,600;  273,450
266,698;  267,125;  284,600;  256,450
266,788;  264,225;  263,600;  248,450
266,878;  331,925;  350,600;  317,450
266,968;  313,525;  282,600;  304,450
267,058;  297,025;  280,600;  292,450
267,147;  301,825;  327,600;  300,450
267,237;  300,925;  293,600;  276,450
267,327;  288,325;  292,600;  276,450
267,417;  303,825;  320,600;  264,450
267,507;  281,025;  297,600;  294,450
267,597;  283,625;  273,600;  272,450
267,687;  277,725;  268,600;  286,450
267,777;  281,825;  267,600;  270,450
267,867;  311,925;  321,600;  296,450
267,956;  295,625;  282,600;  257,450
268,046;  305,925;  306,600;  298,450
268,136;  295,925;  265,600;  291,450
268,226;  271,425;  269,600;  261,450
268,316;  282,525;  266,600;  262,450
268,406;  289,625;  268,600;  338,450
268,495;  286,225;  278,600;  259,450
268,585;  297,225;  304,600;  263,450
268,675;  282,725;  296,600;  260,450
268,765;  297,525;  296,600;  287,450
268,854;  288,025;  277,600;  291,450
268,944;  296,325;  288,600;  299,450
269,034;  287,525;  313,600;  279,450
269,124;  288,425;  283,600;  286,450
269,213;  278,325;  277,600;  255,450
269,303;  281,225;  290,600;  247,450
269,393;  300,125;  265,600;  307,450
269,483;  303,425;  338,600;  273,450
269,572;  290,825;  295,600;  243,450
269,662;  268,825;  286,600;  301,450
269,752;  310,325;  320,600;  299,450
269,841;  265,225;  270,600;  247,450
269,931;  282,625;  264,600;  276,450
270,021;  299,825;  299,600;  295,450
270,110;  271,325;  286,600;  268,450
270,200;  291,525;  329,600;  299,450
270,289;  284,525;  258,600;  279,450
270,379;  294,025;  315,600;  282,450
270,469;  282,525;  297,600;  273,450
270,558;  308,625;  300,600;  286,450
270,648;  276,025;  266,600;  245,450
270,737;  298,425;  288,600;  271,450
270,827;  307,925;  279,600;  263,450
270,916;  277,325;  266,600;  280,450
271,006;  297,125;  287,600;  287,450
271,096;  310,125;  312,600;  334,450
271,185;  282,525;  307,600;  299,450
271,275;  294,425;  305,600;  279,450
271,364;  274,425;  300,600;  286,450
271,454;  304,425;  301,600;  273,450
271,543;  294,325;  295,600;  279,450
271,633;  284,825;  293,600;  257,450
271,722;  298,825;  240,600;  257,450
271,812;  275,925;  255,600;  299,450
271,901;  288,325;  276,600;  286,450
271,990;  286,025;  293,600;  267,450
272,080;  278,825;  282,600;  284,450
272,169;  293,825;  339,600;  288,450
272,259;  294,625;  319,600;  275,450
272,348;  309,625;  291,600;  305,450
272,438;  295,325;  302,600;  301,450
272,527;  294,825;  288,600;  290,450
272,616;  296,325;  295,600;  300,450
272,706;  319,025;  319,600;  313,450
272,795;  303,825;  285,600;  290,450
272,884;  298,225;  302,600;  294,450
272,974;  306,225;  281,600;  279,450
273,063;  332,925;  361,600;  290,450
273,152;  299,125;  299,600;  296,450
273,242;  317,825;  296,600;  311,450
273,331;  317,025;  306,600;  299,450
273,420;  302,425;  296,600;  313,450
273,510;  302,025;  292,600;  311,450
273,599;  311,525;  323,600;  312,450
273,688;  293,725;  311,600;  299,450
273,778;  279,325;  266,600;  259,450
273,867;  315,025;  287,600;  312,450
273,956;  296,325;  303,600;  273,450
274,045;  279,825;  263,600;  236,450
274,135;  312,425;  317,600;  317,450
274,224;  286,125;  316,600;  295,450
274,313;  306,325;  299,600;  294,450
274,402;  289,825;  263,600;  266,450
274,491;  299,925;  277,600;  286,450
274,581;  290,225;  302,600;  266,450
274,670;  287,025;  311,600;  303,450
274,759;  301,725;  303,600;  283,450
274,848;  278,425;  275,600;  301,450
274,937;  281,125;  276,600;  293,450
275,026;  288,425;  298,600;  255,450
275,116;  323,425;  323,600;  309,450
275,205;  295,925;  263,600;  231,450
275,294;  331,425;  333,600;  302,450
275,383;  301,025;  253,600;  278,450
275,472;  296,725;  286,600;  299,450
275,561;  288,025;  299,600;  300,450
275,650;  301,825;  289,600;  281,450
275,739;  291,225;  268,600;  287,450
275,828;  271,425;  262,600;  259,450
275,917;  306,925;  318,600;  305,450
276,006;  283,825;  255,600;  304,450
276,095;  293,525;  276,600;  294,450
276,184;  302,325;  317,600;  317,450
276,273;  289,625;  270,600;  297,450
276,362;  271,925;  260,600;  256,450
276,451;  284,325;  271,600;  286,450
276,540;  289,225;  259,600;  271,450
276,629;  292,725;  274,600;  290,450
276,718;  268,125;  268,600;  258,450
276,807;  267,725;  275,600;  256,450
276,896;  288,025;  269,600;  277,450
276,985;  277,825;  287,600;  255,450
277,074;  294,325;  270,600;  267,450
277,163;  292,925;  289,600;  281,450
277,252;  284,925;  269,600;  278,450
277,341;  281,525;  272,600;  248,450
277,430;  282,325;  239,600;  255,450
277,519;  293,325;  304,600;  293,450
277,608;  259,925;  254,600;  244,450
277,696;  265,425;  272,600;  279,450
277,785;  275,925;  255,600;  276,450
277,874;  296,625;  285,600;  259,450
277,963;  288,725;  273,600;  248,450
278,052;  262,625;  264,600;  286,450
278,141;  276,325;  289,600;  267,450
278,229;  289,525;  279,600;  278,450
278,318;  259,325;  278,600;  269,450
278,407;  283,525;  288,600;  264,450
278,496;  282,525;  319,600;  277,450
278,585;  299,725;  288,600;  297,450
278,673;  262,325;  257,600;  251,450
278,762;  277,625;  238,600;  264,450
278,851;  285,025;  293,600;  272,450
278,940;  291,425;  293,600;  318,450
279,028;  298,725;  271,600;  284,450
279,117;  285,225;  290,600;  283,450
279,206;  280,025;  260,600;  254,450
279,294;  273,125;  280,600;  268,450
279,383;  290,325;  272,600;  289,450
279,472;  295,925;  311,600;  252,450
279,561;  285,325;  264,600;  275,450
279,649;  303,825;  305,600;  283,450
279,738;  247,325;  229,600;  266,450
279,827;  311,625;  285,600;  272,450
279,915;  270,025;  283,600;  248,450
280,004;  286,025;  273,600;  285,450
280,092;  297,825;  286,600;  275,450
280,181;  285,525;  284,600;  249,450
280,270;  277,825;  280,600;  236,450
280,358;  308,325;  299,600;  288,450
280,447;  265,325;  246,600;  240,450
280,535;  276,125;  284,600;  259,450
280,624;  270,525;  291,600;  256,450
280,713;  279,625;  267,600;  266,450
280,801;  289,825;  303,600;  274,450
280,890;  290,425;  262,600;  274,450
280,978;  282,425;  267,600;  239,450
281,067;  259,725;  229,600;  244,450
281,155;  274,325;  267,600;  279,450
281,244;  332,125;  301,600;  299,450
281,332;  290,825;  252,600;  297,450
281,421;  260,825;  273,600;  229,450
281,509;  285,125;  266,600;  268,450
281,598;  262,425;  255,600;  241,450
281,686;  292,125;  300,600;  277,450
281,775;  280,825;  283,600;  280,450
281,863;  285,925;  244,600;  264,450
281,951;  266,625;  254,600;  256,450
282,040;  301,925;  289,600;  320,450
282,128;  293,825;  289,600;  290,450
282,217;  274,125;  255,600;  246,450
282,305;  299,825;  291,600;  280,450
282,393;  286,925;  332,600;  266,450
282,482;  280,625;  314,600;  268,450
282,570;  273,125;  274,600;  279,450
282,658;  282,025;  295,600;  277,450
282,747;  276,825;  257,600;  278,450
282,835;  314,625;  319,600;  305,450
282,923;  253,325;  230,600;  262,450
283,012;  294,025;  268,600;  305,450
283,100;  272,425;  263,600;  230,450
283,188;  256,025;  244,600;  243,450
283,277;  281,625;  279,600;  282,450
283,365;  273,225;  252,600;  253,450
283,453;  263,325;  253,600;  228,450
283,542;  289,925;  293,600;  259,450
283,630;  277,225;  259,600;  271,450
283,718;  278,225;  271,600;  247,450
283,806;  237,825;  225,600;  226,450
283,894;  266,825;  276,600;  274,450
283,983;  275,625;  256,600;  279,450
284,071;  284,825;  307,600;  269,450
284,159;  310,825;  319,600;  305,450
284,247;  292,025;  296,600;  287,450
284,335;  278,225;  267,600;  263,450
284,424;  279,025;  287,600;  269,450
284,512;  292,225;  295,600;  248,450
284,600;  277,625;  261,600;  236,450
284,688;  314,125;  297,600;  325,450
284,776;  273,425;  259,600;  277,450
284,864;  304,425;  327,600;  300,450
284,952;  292,525;  291,600;  276,450
285,041;  308,725;  286,600;  304,450
285,129;  296,225;  304,600;  290,450
285,217;  303,525;  309,600;  280,450
285,305;  316,325;  297,600;  304,450
285,393;  272,225;  255,600;  268,450
285,481;  301,025;  292,600;  274,450
285,569;  297,325;  297,600;  281,450
285,657;  294,225;  272,600;  276,450
285,745;  297,025;  334,600;  282,450
285,833;  287,725;  277,600;  294,450
285,921;  295,525;  301,600;  299,450
286,009;  307,925;  308,600;  308,450
286,097;  303,925;  313,600;  288,450
286,185;  283,125;  294,600;  259,450
286,273;  273,925;  302,600;  257,450
286,361;  310,325;  322,600;  287,450
286,449;  293,125;  305,600;  260,450
286,537;  301,525;  300,600;  248,450
286,625;  286,625;  300,600;  275,450
286,713;  281,925;  262,600;  270,450
286,801;  300,325;  320,600;  307,450
286,889;  310,725;  304,600;  282,450
286,976;  290,625;  271,600;  266,450
287,064;  313,525;  297,600;  309,450
287,152;  307,525;  332,600;  299,450
287,240;  306,125;  297,600;  327,450
287,328;  287,925;  249,600;  245,450
287,416;  282,225;  295,600;  277,450
287,504;  311,725;  302,600;  274,450
287,591;  295,325;  317,600;  307,450
287,679;  282,925;  272,600;  275,450
287,767;  296,925;  270,600;  292,450
287,855;  303,825;  271,600;  284,450
287,943;  309,425;  312,600;  269,450
288,030;  291,725;  246,600;  293,450
288,118;  313,925;  325,600;  295,450
288,206;  266,125;  264,600;  290,450
288,294;  299,125;  273,600;  292,450
288,382;  297,325;  301,600;  288,450
288,469;  310,125;  324,600;  274,450
288,557;  295,025;  276,600;  275,450
288,645;  317,525;  321,600;  281,450
288,732;  275,325;  274,600;  276,450
288,820;  305,825;  334,600;  270,450
288,908;  292,425;  295,600;  295,450
288,995;  310,525;  295,600;  277,450
289,083;  296,725;  278,600;  278,450
289,171;  330,025;  328,600;  310,450
289,258;  368,325;  402,600;  311,450
289,346;  423,825;  433,600;  329,450
289,434;  313,325;  345,600;  318,450
289,521;  277,125;  298,600;  281,450
289,609;  317,025;  317,600;  309,450
289,697;  312,125;  310,600;  321,450
289,784;  291,425;  300,600;  284,450
289,872;  301,425;  314,600;  313,450
289,959;  284,125;  274,600;  262,450
290,047;  293,825;  268,600;  272,450
290,134;  273,225;  286,600;  264,450
290,222;  305,525;  317,600;  294,450
290,310;  304,525;  310,600;  280,450
290,397;  324,725;  302,600;  319,450
290,485;  278,225;  291,600;  284,450
290,572;  307,725;  286,600;  318,450
290,660;  298,925;  300,600;  293,450
290,747;  289,125;  292,600;  290,450
290,835;  299,025;  296,600;  321,450
290,922;  296,125;  307,600;  294,450
291,009;  293,425;  310,600;  283,450
291,097;  284,125;  305,600;  282,450
291,184;  327,325;  319,600;  313,450
291,272;  284,225;  297,600;  264,450
291,359;  285,625;  283,600;  283,450
291,447;  303,125;  294,600;  309,450
291,534;  315,925;  310,600;  315,450
291,621;  291,325;  261,600;  308,450
291,709;  285,425;  284,600;  270,450
291,796;  301,925;  313,600;  323,450
291,884;  287,725;  310,600;  308,450
291,971;  315,125;  306,600;  287,450
292,058;  281,925;  250,600;  294,450
292,146;  282,325;  293,600;  279,450
292,233;  272,025;  284,600;  243,450
292,320;  297,825;  294,600;  284,450
292,408;  308,225;  316,600;  297,450
292,495;  302,325;  302,600;  281,450
292,582;  279,125;  276,600;  273,450
292,669;  277,825;  273,600;  285,450
292,757;  280,425;  292,600;  288,450
292,844;  311,125;  305,600;  312,450
292,931;  269,025;  272,600;  266,450
293,018;  292,425;  267,600;  264,450
293,106;  299,525;  290,600;  324,450
293,193;  267,725;  265,600;  280,450
293,280;  292,425;  304,600;  310,450
293,367;  290,925;  279,600;  295,450
293,455;  290,225;  253,600;  248,450
293,542;  272,225;  264,600;  268,450
293,629;  284,425;  264,600;  272,450
293,716;  302,325;  341,600;  307,450
293,803;  285,925;  273,600;  279,450
293,890;  297,425;  284,600;  298,450
293,978;  281,725;  277,600;  266,450
294,065;  280,125;  293,600;  268,450
294,152;  296,825;  276,600;  315,450
294,239;  267,425;  294,600;  269,450
294,326;  285,025;  307,600;  277,450
294,413;  267,825;  280,600;  253,450
294,500;  285,825;  304,600;  286,450
294,587;  281,525;  291,600;  255,450
294,674;  304,625;  280,600;  314,450
294,761;  299,725;  283,600;  266,450
294,848;  279,525;  275,600;  288,450
294,935;  293,325;  281,600;  279,450
295,022;  268,125;  269,600;  243,450
295,109;  262,425;  259,600;  253,450
295,196;  288,125;  297,600;  309,450
295,283;  275,725;  295,600;  256,450
295,370;  307,425;  318,600;  307,450
295,457;  286,125;  266,600;  285,450
295,544;  280,825;  277,600;  264,450
295,631;  292,025;  282,600;  272,450
295,718;  274,425;  279,600;  248,450
295,805;  304,925;  298,600;  281,450
295,892;  297,525;  314,600;  274,450
295,979;  294,125;  294,600;  284,450
296,066;  295,725;  306,600;  278,450
296,153;  301,025;  313,600;  324,450
296,240;  300,225;  312,600;  282,450
296,327;  288,925;  286,600;  257,450
296,413;  322,125;  316,600;  272,450
296,500;  333,425;  330,600;  261,450
296,587;  547,925;  534,600;  268,450
296,674; 1680,425; 1749,600;  263,450
296,761;  767,325;  786,600;  252,450
296,848;  304,625;  299,600;  274,450
296,934;  297,925;  296,600;  274,450
297,021;  292,825;  286,600;  266,450
297,108;  274,325;  310,600;  269,450
297,195;  285,325;  276,600;  268,450
297,282;  274,925;  295,600;  273,450
297,368;  298,125;  297,600;  347,450
297,455;  270,625;  284,600;  259,450
297,542;  316,325;  330,600;  316,450
297,629;  288,225;  315,600;  290,450
297,715;  298,825;  309,600;  306,450
297,802;  291,225;  286,600;  273,450
297,889;  307,225;  307,600;  319,450
297,975;  323,325;  326,600;  320,450
298,062;  312,825;  325,600;  301,450
298,149;  263,025;  300,600;  269,450
298,235;  295,325;  286,600;  308,450
298,322;  287,025;  287,600;  291,450
298,409;  306,725;  340,600;  304,450
298,495;  280,725;  282,600;  250,450
298,582;  306,225;  303,600;  304,450
298,669;  287,425;  290,600;  290,450
298,755;  282,825;  295,600;  281,450
298,842;  294,625;  315,600;  314,450
298,928;  304,625;  298,600;  281,450
299,015;  292,825;  287,600;  296,450
299,102;  323,925;  306,600;  309,450
299,188;  313,225;  307,600;  292,450
299,275;  308,925;  313,600;  289,450
299,361;  275,625;  274,600;  256,450
299,448;  304,725;  283,600;  278,450
299,534;  297,825;  328,600;  282,450
299,621;  307,725;  323,600;  302,450
299,707;  295,425;  298,600;  298,450
299,794;  312,925;  318,600;  322,450
299,880;  320,425;  301,600;  313,450
299,967;  296,125;  285,600;  251,450
300,053;  291,325;  301,600;  301,450
300,140;  319,525;  314,600;  315,450
300,226;  310,125;  320,600;  297,450
300,312;  303,225;  310,600;  306,450
300,399;  293,925;  290,600;  309,450
300,485;  297,525;  310,600;  268,450
300,572;  272,225;  272,600;  257,450
300,658;  287,425;  299,600;  272,450
300,744;  301,925;  310,600;  301,450
300,831;  308,325;  302,600;  292,450
300,917;  318,925;  298,600;  310,450
301,004;  311,225;  299,600;  288,450
301,090;  269,725;  279,600;  254,450
301,176;  282,825;  284,600;  254,450
301,263;  302,025;  322,600;  282,450
301,349;  291,425;  294,600;  273,450
301,435;  282,025;  267,600;  268,450
301,521;  307,425;  323,600;  301,450
301,608;  314,625;  311,600;  319,450
301,694;  292,025;  304,600;  283,450
301,780;  301,825;  296,600;  288,450
301,867;  275,225;  281,600;  274,450
301,953;  300,925;  289,600;  304,450
302,039;  391,825;  409,600;  273,450
302,125;  529,325;  539,600;  281,450
302,211;  353,025;  349,600;  300,450
302,298;  343,525;  374,600;  261,450
302,384;  301,525;  296,600;  238,450
302,470;  298,125;  280,600;  280,450
302,556;  312,225;  331,600;  294,450
302,642;  290,325;  286,600;  226,450
302,729;  293,425;  300,600;  270,450
302,815;  310,025;  299,600;  269,450
302,901;  290,225;  267,600;  294,450
302,987;  295,725;  299,600;  293,450
303,073;  287,025;  284,600;  283,450
303,159;  288,725;  295,600;  305,450
303,245;  289,625;  279,600;  256,450
303,331;  279,725;  281,600;  277,450
303,417;  291,725;  283,600;  328,450
303,503;  306,125;  331,600;  293,450
303,590;  284,125;  289,600;  272,450
303,676;  303,125;  289,600;  302,450
303,762;  292,125;  288,600;  270,450
303,848;  319,825;  295,600;  316,450
303,934;  305,525;  323,600;  286,450
304,020;  299,225;  304,600;  288,450
304,106;  305,025;  318,600;  287,450
304,192;  287,225;  265,600;  275,450
304,278;  298,125;  297,600;  304,450
304,364;  322,625;  327,600;  303,450
304,450;  300,425;  283,600;  288,450
304,535;  287,925;  304,600;  295,450
304,621;  298,625;  302,600;  309,450
304,707;  309,125;  294,600;  296,450
304,793;  316,025;  323,600;  295,450
304,879;  306,825;  305,600;  292,450
304,965;  314,325;  297,600;  273,450
305,051;  305,225;  310,600;  260,450
305,137;  317,025;  266,600;  314,450
305,223;  282,825;  299,600;  301,450
305,309;  316,125;  306,600;  306,450
305,394;  309,625;  266,600;  282,450
305,480;  288,525;  298,600;  266,450
305,566;  301,125;  280,600;  297,450
305,652;  305,525;  297,600;  308,450
305,738;  349,425;  332,600;  315,450
305,824;  313,725;  280,600;  303,450
305,909;  325,025;  338,600;  301,450
305,995;  285,325;  267,600;  268,450
306,081;  340,625;  368,600;  334,450
306,167;  302,825;  287,600;  311,450
306,252;  324,325;  319,600;  311,450
306,338;  326,125;  332,600;  332,450
306,424;  302,125;  315,600;  260,450
306,510;  304,925;  355,600;  305,450
306,595;  319,225;  303,600;  335,450
306,681;  317,425;  321,600;  287,450
306,767;  306,125;  313,600;  286,450
306,852;  328,725;  337,600;  314,450
306,938;  325,725;  291,600;  336,450
307,024;  306,725;  281,600;  321,450
307,109;  332,825;  340,600;  327,450
307,195;  311,825;  318,600;  337,450
307,281;  320,525;  322,600;  315,450
307,366;  306,225;  319,600;  284,450
307,452;  311,525;  292,600;  312,450
307,537;  294,225;  289,600;  281,450
307,623;  291,025;  272,600;  282,450
307,709;  309,325;  302,600;  325,450
307,794;  282,025;  293,600;  258,450
307,880;  312,025;  321,600;  320,450
307,965;  306,425;  278,600;  274,450
308,051;  297,125;  263,600;  305,450
308,136;  296,525;  314,600;  260,450
308,222;  285,625;  306,600;  301,450
308,307;  291,225;  286,600;  312,450
308,393;  289,525;  294,600;  285,450
308,478;  325,025;  321,600;  308,450
308,564;  282,225;  280,600;  276,450
308,649;  305,525;  308,600;  304,450
308,735;  291,425;  320,600;  278,450
308,820;  313,625;  328,600;  304,450
308,906;  294,125;  298,600;  272,450
308,991;  332,025;  339,600;  314,450
309,076;  317,825;  335,600;  290,450
309,162;  277,325;  265,600;  245,450
309,247;  310,525;  297,600;  288,450
309,333;  290,825;  284,600;  286,450
309,418;  293,825;  281,600;  297,450
309,503;  292,525;  301,600;  289,450
309,589;  291,925;  308,600;  306,450
309,674;  295,525;  274,600;  268,450
309,759;  295,525;  291,600;  289,450
309,845;  306,225;  290,600;  312,450
309,930;  297,625;  292,600;  288,450
310,015;  279,825;  257,600;  251,450
310,101;  317,525;  282,600;  296,450
310,186;  284,025;  267,600;  298,450
310,271;  292,525;  298,600;  286,450
310,357;  288,525;  265,600;  286,450
310,442;  299,325;  288,600;  263,450
310,527;  299,325;  288,600;  306,450
310,612;  269,525;  291,600;  253,450
310,698;  320,325;  282,600;  275,450
310,783;  300,325;  288,600;  279,450
310,868;  291,525;  313,600;  263,450
310,953;  272,725;  269,600;  293,450
311,038;  301,325;  289,600;  286,450
311,124;  288,825;  296,600;  277,450
311,209;  269,325;  293,600;  291,450
311,294;  298,025;  306,600;  303,450
311,379;  271,925;  254,600;  258,450
311,464;  291,825;  302,600;  291,450
311,549;  279,225;  277,600;  294,450
311,634;  282,325;  284,600;  275,450
311,719;  316,025;  308,600;  309,450
311,805;  297,625;  308,600;  275,450
311,890;  300,625;  308,600;  261,450
311,975;  283,825;  262,600;  283,450
312,060;  293,325;  321,600;  289,450
312,145;  291,825;  277,600;  262,450
312,230;  303,125;  313,600;  285,450
312,315;  327,225;  325,600;  262,450
312,400;  395,725;  404,600;  303,450
312,485; 1697,525; 1668,600;  292,450
312,570; 1203,725; 1232,600;  239,450
312,655;  331,325;  342,600;  282,450
312,740;  316,125;  312,600;  289,450
312,825;  333,125;  329,600;  301,450
312,910;  359,725;  343,600;  278,450
312,995;  434,825;  443,600;  325,450
313,080; 2115,325; 2082,600;  265,450
313,165; 2157,825; 2149,600;  310,450
313,250;  356,425;  308,600;  276,450
313,335;  307,825;  321,600;  307,450
313,419;  275,925;  269,600;  242,450
313,504;  314,125;  304,600;  286,450
313,589;  306,925;  272,600;  277,450
313,674;  314,525;  303,600;  290,450
313,759;  285,025;  274,600;  273,450
313,844;  293,725;  276,600;  289,450
313,929;  289,225;  295,600;  285,450
314,014;  310,925;  307,600;  320,450
314,098;  302,825;  321,600;  305,450
314,183;  266,425;  258,600;  260,450
314,268;  291,825;  295,600;  290,450
314,353;  311,325;  287,600;  290,450
314,438;  311,625;  287,600;  294,450
314,522;  306,525;  272,600;  306,450
314,607;  300,125;  282,600;  302,450
314,692;  294,525;  291,600;  301,450
314,777;  296,925;  291,600;  279,450
314,861;  269,425;  293,600;  263,450
314,946;  305,925;  321,600;  303,450
315,031;  282,225;  284,600;  267,450
315,115;  303,525;  309,600;  318,450
315,200;  308,425;  301,600;  285,450
315,285;  289,825;  278,600;  275,450
315,369;  286,825;  282,600;  273,450
315,454;  308,225;  291,600;  305,450
315,539;  302,725;  280,600;  283,450
315,623;  307,225;  308,600;  292,450
315,708;  342,925;  326,600;  315,450
315,793;  296,625;  318,600;  308,450
315,877;  300,025;  311,600;  282,450
315,962;  285,025;  263,600;  283,450
316,046;  314,125;  327,600;  298,450
316,131;  336,625;  334,600;  313,450
316,216;  313,425;  308,600;  288,450
316,300;  298,325;  307,600;  281,450
316,385;  315,225;  301,600;  319,450
316,469;  320,725;  335,600;  331,450
316,554;  297,825;  290,600;  288,450
316,638;  293,125;  297,600;  286,450
316,723;  297,025;  285,600;  262,450
316,807;  277,325;  268,600;  273,450
316,892;  293,225;  293,600;  275,450
316,976;  310,825;  298,600;  318,450
317,061;  306,625;  282,600;  309,450
317,145;  314,925;  316,600;  315,450
317,230;  315,025;  309,600;  304,450
317,314;  277,525;  264,600;  259,450
317,398;  305,025;  280,600;  323,450
317,483;  280,325;  312,600;  266,450
317,567;  310,025;  299,600;  317,450
317,652;  278,225;  280,600;  244,450
317,736;  304,125;  277,600;  329,450
317,820;  329,025;  343,600;  287,450
317,905;  298,425;  311,600;  289,450
317,989;  291,925;  303,600;  312,450
318,073;  289,525;  281,600;  280,450
318,158;  286,525;  262,600;  284,450
318,242;  282,125;  297,600;  269,450
318,326;  281,225;  265,600;  260,450
318,411;  295,825;  263,600;  290,450
318,495;  277,825;  274,600;  286,450
318,579;  287,425;  264,600;  266,450
318,664;  281,025;  284,600;  242,450
318,748;  301,825;  290,600;  266,450
318,832;  292,925;  261,600;  263,450
318,916;  268,425;  272,600;  263,450
319,001;  290,225;  287,600;  299,450
319,085;  284,725;  265,600;  265,450
319,169;  287,425;  304,600;  285,450
319,253;  286,825;  270,600;  271,450
319,337;  289,425;  311,600;  265,450
319,422;  310,425;  329,600;  325,450
319,506;  274,525;  282,600;  264,450
319,590;  302,525;  303,600;  320,450
319,674;  290,125;  326,600;  301,450
319,758;  290,125;  277,600;  278,450
319,842;  308,325;  280,600;  290,450
319,926;  288,425;  268,600;  280,450
320,010;  269,425;  267,600;  226,450
320,095;  275,925;  284,600;  274,450
320,179;  280,225;  270,600;  263,450
320,263;  287,225;  259,600;  265,450
320,347;  266,425;  217,600;  260,450
320,431;  268,325;  267,600;  245,450
320,515;  296,525;  297,600;  267,450
320,599;  260,725;  274,600;  263,450
320,683;  303,225;  295,600;  306,450
320,767;  268,125;  246,600;  230,450
320,851;  281,525;  247,600;  282,450
320,935;  312,125;  294,600;  317,450
321,019;  289,925;  258,600;  297,450
321,103;  274,525;  319,600;  295,450
321,187;  269,425;  272,600;  303,450
321,271;  287,525;  299,600;  251,450
321,355;  276,825;  290,600;  264,450
321,439;  294,225;  282,600;  306,450
321,523;  276,225;  285,600;  287,450
321,606;  284,325;  289,600;  301,450
321,690;  276,525;  285,600;  261,450
321,774;  284,825;  284,600;  286,450
321,858;  279,225;  300,600;  283,450
321,942;  303,725;  298,600;  291,450
322,026;  275,925;  296,600;  280,450
322,110;  292,125;  286,600;  264,450
322,194;  289,225;  279,600;  293,450
322,277;  282,625;  287,600;  257,450
322,361;  266,825;  260,600;  265,450
322,445;  278,825;  285,600;  252,450
322,529;  281,225;  298,600;  264,450
322,613;  288,525;  273,600;  262,450
322,696;  270,125;  287,600;  266,450
322,780;  272,825;  303,600;  256,450
322,864;  266,125;  310,600;  288,450
322,948;  283,925;  262,600;  270,450
323,031;  279,825;  268,600;  269,450
323,115;  282,125;  299,600;  257,450
323,199;  287,025;  291,600;  268,450
323,282;  295,125;  284,600;  302,450
323,366;  288,825;  280,600;  307,450
323,450;  277,225;  241,600;  266,450
323,533;  316,625;  309,600;  308,450
323,617;  270,525;  243,600;  238,450
323,701;  275,225;  239,600;  257,450
323,784;  286,325;  305,600;  289,450
323,868;  296,625;  302,600;  285,450
323,952;  294,225;  276,600;  272,450
324,035;  304,425;  295,600;  297,450
324,119;  292,825;  285,600;  262,450
324,202;  283,425;  280,600;  298,450
324,286;  280,125;  236,600;  286,450
324,370;  289,925;  291,600;  274,450
324,453;  294,625;  287,600;  296,450
324,537;  295,625;  280,600;  281,450
324,620;  281,525;  295,600;  303,450
324,704;  271,725;  281,600;  261,450
324,787;  294,325;  295,600;  267,450
324,871;  305,525;  293,600;  314,450
324,954;  311,725;  299,600;  318,450
325,038;  305,825;  299,600;  301,450
325,121;  306,025;  302,600;  316,450
325,205;  289,825;  273,600;  277,450
325,288;  277,525;  280,600;  269,450
325,371;  298,625;  275,600;  285,450
325,455;  316,025;  289,600;  302,450
325,538;  291,325;  292,600;  308,450
325,622;  322,425;  302,600;  306,450
325,705;  283,625;  303,600;  300,450
325,788;  316,725;  297,600;  298,450
325,872;  298,625;  264,600;  279,450
325,955;  315,925;  305,600;  300,450
326,039;  294,525;  290,600;  313,450
326,122;  299,825;  277,600;  288,450
326,205;  310,425;  320,600;  299,450
326,289;  322,325;  313,600;  313,450
326,372;  295,425;  310,600;  288,450
326,455;  324,125;  322,600;  318,450
326,538;  317,425;  312,600;  306,450
326,622;  311,425;  285,600;  313,450
326,705;  283,925;  272,600;  290,450
326,788;  319,125;  288,600;  324,450
326,871;  309,025;  286,600;  281,450
326,955;  309,225;  293,600;  333,450
327,038;  306,225;  304,600;  284,450
327,121;  296,225;  313,600;  303,450
327,204;  311,125;  315,600;  298,450
327,288;  319,525;  326,600;  328,450
327,371;  289,525;  286,600;  294,450
327,454;  319,125;  303,600;  316,450
327,537;  297,525;  272,600;  285,450
327,620;  322,725;  327,600;  309,450
327,703;  299,325;  308,600;  314,450
327,786;  304,025;  320,600;  319,450
327,870;  321,925;  321,600;  308,450
327,953;  293,125;  307,600;  296,450
328,036;  298,225;  291,600;  264,450
328,119;  310,125;  345,600;  299,450
328,202;  304,925;  305,600;  287,450
328,285;  328,825;  336,600;  306,450
328,368;  318,825;  335,600;  328,450
328,451;  323,325;  325,600;  334,450
328,534;  304,525;  292,600;  283,450
328,617;  303,025;  290,600;  281,450
328,700;  321,525;  325,600;  327,450
328,783;  326,425;  319,600;  292,450
328,866;  308,025;  294,600;  287,450
328,949;  321,725;  341,600;  325,450
329,032;  284,425;  292,600;  308,450
329,115;  296,625;  288,600;  279,450
329,198;  285,025;  265,600;  282,450
329,281;  302,925;  310,600;  277,450
329,364;  310,725;  300,600;  330,450
329,447;  305,525;  303,600;  300,450
329,530;  318,325;  321,600;  317,450
329,613;  307,025;  302,600;  289,450
329,696;  328,325;  308,600;  298,450
329,778;  309,725;  313,600;  293,450
329,861;  291,725;  309,600;  288,450
329,944;  314,725;  326,600;  272,450
330,027;  314,725;  312,600;  296,450
330,110;  304,325;  305,600;  313,450
330,193;  295,025;  284,600;  300,450
330,275;  311,125;  290,600;  298,450
330,358;  277,625;  278,600;  298,450
330,441;  320,125;  307,600;  326,450
330,524;  300,125;  322,600;  298,450
330,607;  306,225;  281,600;  304,450
330,689;  301,725;  278,600;  321,450
330,772;  299,925;  290,600;  305,450
330,855;  316,925;  329,600;  287,450
330,938;  319,125;  332,600;  319,450
331,020;  315,225;  298,600;  292,450
331,103;  294,025;  280,600;  310,450
331,186;  295,625;  298,600;  286,450
331,268;  298,025;  280,600;  269,450
331,351;  313,925;  285,600;  311,450
331,434;  301,025;  296,600;  316,450
331,516;  319,925;  313,600;  329,450
331,599;  294,525;  266,600;  255,450
331,682;  309,425;  301,600;  302,450
331,764;  291,525;  308,600;  261,450
331,847;  317,725;  311,600;  310,450
331,929;  281,725;  286,600;  278,450
332,012;  309,825;  296,600;  295,450
332,095;  321,925;  348,600;  317,450
332,177;  315,025;  353,600;  324,450
332,260;  316,825;  349,600;  345,450
332,342;  307,325;  310,600;  291,450
332,425;  309,525;  301,600;  293,450
332,507;  305,925;  239,600;  316,450
332,590;  287,125;  274,600;  280,450
332,672;  294,625;  310,600;  264,450
332,755;  304,925;  320,600;  233,450
332,837;  304,625;  286,600;  274,450
332,920;  308,625;  315,600;  298,450
333,002;  313,225;  308,600;  306,450
333,085;  305,125;  308,600;  298,450
333,167;  294,425;  275,600;  266,450
333,249;  281,325;  276,600;  277,450
333,332;  291,025;  275,600;  279,450
333,414;  297,725;  317,600;  295,450
333,497;  303,125;  315,600;  305,450
333,579;  298,525;  303,600;  307,450
333,661;  314,725;  319,600;  286,450
333,744;  290,825;  265,600;  243,450
333,826;  303,025;  302,600;  293,450
333,908;  314,325;  329,600;  332,450
333,991;  301,625;  253,600;  285,450
334,073;  462,525;  503,600;  321,450
334,155;  343,925;  360,600;  289,450
334,238;  315,625;  314,600;  286,450
334,320;  289,625;  296,600;  270,450
334,402;  301,125;  298,600;  292,450
334,485;  301,425;  305,600;  282,450
334,567;  288,325;  301,600;  262,450
334,649;  276,425;  266,600;  273,450
334,731;  309,725;  287,600;  285,450
334,813;  315,025;  346,600;  352,450
334,896;  286,625;  296,600;  287,450
334,978;  292,325;  302,600;  283,450
335,060;  305,225;  306,600;  296,450
335,142;  294,225;  265,600;  306,450
335,224;  307,625;  308,600;  310,450
335,307;  300,125;  277,600;  275,450
335,389;  310,225;  302,600;  315,450
335,471;  293,925;  300,600;  282,450
335,553;  311,225;  308,600;  317,450
335,635;  309,425;  303,600;  277,450
335,717;  294,125;  280,600;  305,450
335,799;  318,525;  314,600;  325,450
335,881;  268,025;  271,600;  251,450
335,963;  280,725;  283,600;  278,450
336,045;  286,325;  281,600;  276,450
336,128;  277,625;  281,600;  268,450
336,210;  282,325;  284,600;  250,450
336,292;  288,325;  301,600;  283,450
336,374;  300,825;  307,600;  287,450
336,456;  278,825;  290,600;  258,450
336,538;  308,025;  288,600;  304,450
336,620;  313,425;  325,600;  305,450
336,702;  287,525;  308,600;  309,450
336,783;  300,925;  299,600;  289,450
336,865;  297,125;  302,600;  303,450
336,947;  309,125;  299,600;  302,450
337,029;  275,025;  252,600;  262,450
337,111;  312,425;  309,600;  328,450
337,193;  280,925;  257,600;  250,450
337,275;  306,225;  302,600;  291,450
337,357;  316,425;  299,600;  305,450
337,439;  304,725;  299,600;  277,450
337,521;  281,325;  274,600;  268,450
337,602;  297,025;  280,600;  295,450
337,684;  303,125;  302,600;  341,450
337,766;  312,525;  301,600;  288,450
337,848;  292,125;  309,600;  318,450
337,930;  288,925;  300,600;  300,450
338,012;  299,125;  257,600;  295,450
338,093;  310,725;  302,600;  312,450
338,175;  317,125;  308,600;  308,450
338,257;  303,425;  296,600;  243,450
338,339;  301,025;  303,600;  248,450
338,420;  303,525;  304,600;  329,450
338,502;  298,025;  292,600;  292,450
338,584;  278,225;  261,600;  270,450
338,666;  299,825;  293,600;  301,450
338,747;  330,325;  337,600;  324,450
338,829;  299,425;  301,600;  300,450
338,911;  288,825;  281,600;  284,450
338,992;  279,125;  292,600;  299,450
339,074;  298,125;  300,600;  274,450
339,156;  295,725;  308,600;  302,450
339,237;  320,525;  344,600;  320,450
339,319;  288,825;  298,600;  284,450
339,400;  306,325;  301,600;  313,450
339,482;  271,125;  291,600;  259,450
339,564;  321,325;  337,600;  315,450
339,645;  295,625;  283,600;  306,450
339,727;  280,125;  284,600;  278,450
339,808;  312,525;  306,600;  320,450
339,890;  295,725;  285,600;  277,450
339,971;  310,125;  318,600;  299,450
340,053;  337,825;  327,600;  339,450
340,134;  294,825;  287,600;  283,450
340,216;  313,525;  294,600;  302,450
340,297;  302,325;  330,600;  312,450
340,379;  318,925;  344,600;  301,450
340,460;  310,025;  275,600;  299,450
340,542;  294,225;  307,600;  263,450
340,623;  315,125;  306,600;  325,450
340,705;  282,925;  306,600;  262,450
340,786;  283,725;  299,600;  288,450
340,868;  306,625;  299,600;  313,450
340,949;  279,825;  279,600;  269,450
341,030;  312,725;  330,600;  312,450
341,112;  280,025;  256,600;  269,450
341,193;  264,525;  287,600;  248,450
341,274;  313,525;  325,600;  312,450
341,356;  315,225;  329,600;  300,450
341,437;  298,625;  292,600;  284,450
341,518;  302,325;  313,600;  322,450
341,600;  306,325;  321,600;  324,450
341,681;  326,025;  316,600;  308,450
341,762;  322,125;  316,600;  314,450
341,844;  286,425;  271,600;  280,450
341,925;  306,625;  304,600;  329,450
342,006;  319,325;  314,600;  322,450
342,087;  290,625;  291,600;  308,450
342,169;  299,625;  301,600;  297,450
342,250;  278,425;  303,600;  250,450
342,331;  288,825;  291,600;  268,450
342,412;  306,925;  304,600;  283,450
342,493;  275,825;  279,600;  266,450
342,575;  324,025;  298,600;  308,450
342,656;  328,025;  343,600;  319,450
342,737;  327,025;  331,600;  316,450
342,818;  306,725;  319,600;  291,450
342,899;  311,925;  309,600;  295,450
342,980;  306,825;  306,600;  302,450
343,061;  294,325;  297,600;  279,450
343,143;  303,525;  299,600;  310,450
343,224;  304,025;  297,600;  287,450
343,305;  294,525;  294,600;  273,450
343,386;  303,225;  290,600;  295,450
343,467;  300,725;  306,600;  295,450
343,548;  288,125;  307,600;  271,450
343,629;  309,425;  348,600;  311,450
343,710;  315,525;  354,600;  330,450
343,791;  319,925;  296,600;  295,450
343,872;  288,925;  314,600;  271,450
343,953;  308,725;  323,600;  303,450
344,034;  316,625;  307,600;  307,450
344,115;  304,725;  298,600;  295,450
344,196;  291,225;  295,600;  273,450
344,277;  291,325;  282,600;  299,450
344,358;  300,925;  279,600;  295,450
344,439;  284,025;  281,600;  287,450
344,520;  292,125;  310,600;  269,450
344,601;  306,825;  319,600;  332,450
344,681;  295,625;  312,600;  315,450
344,762;  284,725;  275,600;  257,450
344,843;  273,525;  300,600;  255,450
344,924;  294,925;  252,600;  290,450
345,005;  276,125;  269,600;  286,450
345,086;  303,525;  301,600;  289,450
345,167;  290,825;  299,600;  282,450
345,247;  316,025;  305,600;  327,450
345,328;  318,325;  287,600;  317,450
345,409;  305,925;  280,600;  307,450
345,490;  308,525;  314,600;  310,450
345,571;  293,525;  293,600;  295,450
345,651;  273,025;  260,600;  335,450
345,732;  288,925;  303,600;  286,450
345,813;  309,425;  285,600;  291,450
345,894;  281,925;  254,600;  279,450
345,974;  304,825;  346,600;  305,450
346,055;  295,225;  275,600;  291,450
346,136;  304,125;  311,600;  287,450
346,216;  309,525;  312,600;  345,450
346,297;  303,725;  294,600;  289,450
346,378;  293,225;  270,600;  300,450
346,458;  312,725;  299,600;  271,450
346,539;  300,925;  295,600;  315,450
346,620;  294,425;  301,600;  312,450
346,700;  282,025;  302,600;  258,450
346,781;  287,125;  252,600;  260,450
346,861;  294,125;  283,600;  301,450
346,942;  295,825;  273,600;  319,450
347,023;  309,825;  302,600;  306,450
347,103;  285,725;  296,600;  287,450
347,184;  291,025;  321,600;  294,450
347,264;  295,025;  289,600;  310,450
347,345;  284,725;  280,600;  281,450
347,425;  272,625;  270,600;  295,450
347,506;  277,325;  283,600;  283,450
347,586;  288,025;  258,600;  283,450
347,667;  293,825;  316,600;  299,450
347,747;  298,025;  307,600;  304,450
347,828;  293,725;  308,600;  271,450
347,908;  295,125;  307,600;  307,450
347,988;  288,425;  296,600;  251,450
348,069;  314,825;  295,600;  305,450
348,149;  295,025;  303,600;  276,450
348,230;  300,125;  297,600;  301,450
348,310;  275,725;  291,600;  301,450
348,390;  281,525;  285,600;  267,450
348,471;  304,425;  299,600;  270,450
348,551;  284,125;  289,600;  264,450
348,632;  284,225;  288,600;  278,450
348,712;  277,525;  281,600;  278,450
348,792;  328,425;  352,600;  333,450
348,873;  277,925;  293,600;  249,450
348,953;  289,925;  278,600;  330,450
349,033;  289,925;  285,600;  311,450
349,113;  286,125;  278,600;  277,450
349,194;  300,725;  289,600;  310,450
349,274;  297,825;  300,600;  310,450
349,354;  301,425;  288,600;  285,450
349,434;  307,325;  300,600;  299,450
349,515;  312,025;  310,600;  320,450
349,595;  302,425;  308,600;  287,450
349,675;  298,025;  289,600;  299,450
349,755;  294,725;  325,600;  280,450
349,835;  293,825;  305,600;  309,450
349,916;  285,625;  298,600;  284,450
349,996;  279,025;  287,600;  253,450
350,076;  304,425;  286,600;  315,450
350,156;  282,825;  272,600;  280,450
350,236;  306,825;  292,600;  316,450
350,316;  287,725;  296,600;  282,450
350,396;  303,825;  283,600;  306,450
350,476;  289,825;  308,600;  275,450
350,556;  288,225;  275,600;  290,450
350,637;  320,825;  331,600;  312,450
350,717;  288,725;  269,600;  287,450
350,797;  304,225;  307,600;  305,450
350,877;  282,325;  305,600;  323,450
350,957;  292,725;  285,600;  291,450
351,037;  299,625;  303,600;  298,450
351,117;  294,425;  304,600;  275,450
351,197;  297,725;  331,600;  302,450
351,277;  297,925;  328,600;  277,450
351,357;  314,725;  322,600;  293,450
351,437;  303,625;  299,600;  283,450
351,516;  314,225;  337,600;  283,450
351,596;  286,725;  291,600;  329,450
351,676;  284,525;  269,600;  284,450
351,756;  328,225;  308,600;  326,450
351,836;  306,125;  285,600;  329,450
351,916;  285,525;  324,600;  287,450
351,996;  300,525;  313,600;  318,450
352,076;  295,825;  288,600;  302,450
352,156;  317,725;  317,600;  297,450
352,235;  302,325;  310,600;  304,450
352,315;  299,425;  313,600;  339,450
352,395;  300,325;  306,600;  277,450
352,475;  307,025;  339,600;  287,450
352,555;  321,525;  362,600;  344,450
352,634;  315,225;  304,600;  344,450
352,714;  302,925;  310,600;  263,450
352,794;  361,925;  334,600;  364,450
352,874;  316,025;  335,600;  339,450
352,953;  332,325;  336,600;  318,450
353,033;  315,425;  317,600;  344,450
353,113;  334,025;  360,600;  341,450
353,193;  330,425;  314,600;  334,450
353,272;  332,625;  295,600;  329,450
353,352;  307,125;  303,600;  275,450
353,432;  335,425;  324,600;  344,450
353,511;  326,325;  323,600;  302,450
353,591;  352,325;  352,600;  347,450
353,671;  326,925;  335,600;  320,450
353,750;  323,025;  311,600;  311,450
353,830;  304,225;  319,600;  296,450
353,909;  343,725;  335,600;  341,450
353,989;  316,925;  309,600;  297,450
354,069;  310,925;  315,600;  318,450
354,148;  338,725;  341,600;  323,450
354,228;  316,625;  315,600;  300,450
354,307;  323,225;  313,600;  312,450
354,387;  322,025;  316,600;  326,450
354,466;  316,625;  319,600;  299,450
354,546;  324,325;  314,600;  347,450
354,625;  313,125;  341,600;  324,450
354,705;  313,325;  272,600;  330,450
354,784;  313,425;  301,600;  303,450
354,864;  304,325;  309,600;  305,450
354,943;  332,225;  340,600;  339,450
355,023;  303,525;  288,600;  314,450
355,102;  354,625;  337,600;  333,450
355,181;  308,525;  328,600;  329,450
355,261;  337,025;  314,600;  344,450
355,340;  291,325;  301,600;  307,450
355,420;  338,025;  325,600;  327,450
355,499;  321,225;  294,600;  326,450
355,578;  311,425;  321,600;  324,450
355,658;  337,325;  310,600;  346,450
355,737;  314,825;  312,600;  309,450
355,816;  325,025;  330,600;  333,450
355,896;  313,525;  300,600;  301,450
355,975;  303,625;  308,600;  294,450
356,054;  312,425;  316,600;  285,450
356,133;  285,625;  287,600;  314,450
356,213;  323,525;  318,600;  292,450
356,292;  299,225;  297,600;  276,450
356,371;  309,625;  331,600;  297,450
356,451;  322,425;  345,600;  294,450
356,530;  356,025;  357,600;  319,450
356,609;  317,725;  306,600;  286,450
356,688;  313,825;  314,600;  298,450
356,767;  294,825;  299,600;  290,450
356,846;  319,825;  346,600;  295,450
356,926;  337,025;  342,600;  361,450
357,005;  307,025;  332,600;  321,450
357,084;  292,225;  318,600;  321,450
357,163;  313,825;  335,600;  341,450
357,242;  307,525;  286,600;  337,450
357,321;  304,225;  322,600;  296,450
357,400;  308,225;  305,600;  310,450
357,479;  317,125;  336,600;  292,450
357,559;  321,125;  325,600;  314,450
357,638;  295,325;  312,600;  292,450
357,717;  311,525;  322,600;  304,450
357,796;  318,325;  348,600;  323,450
357,875;  304,225;  333,600;  316,450
357,954;  310,625;  312,600;  285,450
358,033;  333,325;  311,600;  278,450
358,112;  323,925;  302,600;  300,450
358,191;  318,825;  313,600;  289,450
358,270;  299,925;  266,600;  300,450
358,349;  323,225;  291,600;  324,450
358,428;  321,525;  321,600;  335,450
358,507;  332,925;  348,600;  306,450
358,585;  320,625;  318,600;  326,450
358,664;  321,125;  318,600;  340,450
358,743;  312,925;  293,600;  304,450
358,822;  324,725;  354,600;  329,450
358,901;  310,125;  275,600;  303,450
358,980;  302,025;  308,600;  299,450
359,059;  332,925;  326,600;  326,450
359,138;  324,725;  308,600;  324,450
359,216;  314,925;  320,600;  314,450
359,295;  301,025;  325,600;  329,450
359,374;  326,025;  335,600;  301,450
359,453;  321,725;  340,600;  315,450
359,532;  306,925;  307,600;  310,450
359,610;  315,425;  315,600;  307,450
359,689;  328,625;  324,600;  330,450
359,768;  307,525;  305,600;  294,450
359,847;  305,425;  313,600;  287,450
359,925;  301,925;  303,600;  315,450
360,004;  293,525;  295,600;  289,450
360,083;  311,025;  299,600;  319,450
360,161;  304,825;  314,600;  285,450
360,240;  286,525;  272,600;  289,450
360,319;  309,125;  323,600;  309,450
360,397;  319,525;  313,600;  320,450
360,476;  316,125;  291,600;  325,450
360,555;  348,025;  334,600;  340,450
360,633;  300,925;  287,600;  300,450
360,712;  303,825;  299,600;  264,450
360,790;  324,525;  314,600;  320,450
360,869;  304,725;  297,600;  296,450
360,948;  316,625;  278,600;  334,450
361,026;  301,225;  321,600;  276,450
361,105;  312,425;  305,600;  290,450
361,183;  320,925;  294,600;  286,450
361,262;  298,225;  300,600;  280,450
361,340;  301,325;  318,600;  297,450
361,419;  284,625;  282,600;  250,450
361,497;  342,725;  300,600;  335,450
361,576;  317,525;  292,600;  315,450
361,654;  330,225;  361,600;  322,450
361,733;  295,325;  320,600;  300,450
361,811;  324,725;  320,600;  311,450
361,890;  294,825;  267,600;  289,450
361,968;  314,125;  269,600;  303,450
362,046;  332,025;  334,600;  321,450
362,125;  334,225;  353,600;  326,450
362,203;  309,125;  297,600;  287,450
362,282;  323,825;  319,600;  338,450
362,360;  319,725;  296,600;  307,450
362,438;  311,225;  310,600;  302,450
362,517;  355,825;  346,600;  347,450
362,595;  333,125;  312,600;  351,450
362,673;  330,925;  323,600;  317,450
362,752;  326,025;  349,600;  327,450
362,830;  334,425;  338,600;  349,450
362,908;  314,825;  310,600;  307,450
362,986;  323,125;  335,600;  315,450
363,065;  327,825;  313,600;  344,450
363,143;  359,625;  354,600;  367,450
363,221;  317,225;  302,600;  288,450
363,299;  305,925;  304,600;  309,450
363,378;  322,125;  297,600;  335,450
363,456;  295,325;  286,600;  316,450
363,534;  320,525;  318,600;  323,450
363,612;  333,925;  320,600;  312,450
363,690;  344,925;  319,600;  344,450
363,769;  347,625;  340,600;  345,450
363,847;  332,125;  308,600;  356,450
363,925;  308,725;  282,600;  303,450
364,003;  349,925;  343,600;  348,450
364,081;  337,825;  323,600;  338,450
364,159;  331,825;  325,600;  330,450
364,237;  342,525;  351,600;  326,450
364,315;  316,725;  306,600;  311,450
364,393;  355,625;  363,600;  340,450
364,471;  338,725;  345,600;  315,450
364,549;  356,425;  344,600;  337,450
364,627;  344,025;  339,600;  321,450
364,705;  353,625;  344,600;  299,450
364,783;  421,125;  417,600;  294,450
364,861;  995,525; 1050,600;  311,450
364,939; 3605,825; 3619,600;  304,450
365,017;  767,025;  723,600;  298,450
365,095;  374,825;  341,600;  327,450
365,173;  374,225;  398,600;  335,450
365,251;  381,725;  356,600;  345,450
365,329;  524,325;  527,600;  344,450
365,407; 1162,725; 1155,600;  315,450
365,485;  460,025;  464,600;  377,450
365,563;  344,925;  354,600;  339,450
365,641;  340,525;  327,600;  316,450
365,719;  338,025;  361,600;  314,450
365,796;  347,025;  329,600;  309,450
365,874;  350,425;  329,600;  354,450
365,952;  315,725;  334,600;  297,450
366,030;  330,025;  311,600;  318,450
366,108;  364,525;  336,600;  325,450
366,185;  624,725;  644,600;  330,450
366,263;  894,025;  880,600;  333,450
366,341;  380,125;  362,600;  310,450
366,419;  340,425;  335,600;  319,450
366,496;  345,425;  347,600;  336,450
366,574;  334,225;  299,600;  321,450
366,652;  354,925;  381,600;  324,450
366,730;  361,225;  336,600;  375,450
366,807;  332,825;  317,600;  335,450
366,885;  322,725;  315,600;  340,450
366,963;  330,425;  305,600;  332,450
367,040;  346,825;  348,600;  348,450
367,118;  333,025;  315,600;  299,450
367,196;  346,225;  322,600;  355,450
367,273;  334,925;  331,600;  352,450
367,351;  326,125;  314,600;  320,450
367,428;  366,125;  351,600;  360,450
367,506;  327,225;  361,600;  305,450
367,584;  358,425;  352,600;  377,450
367,661;  337,825;  329,600;  332,450
367,739;  333,325;  328,600;  328,450
367,816;  326,825;  343,600;  292,450
367,894;  345,725;  368,600;  312,450
367,971;  337,325;  309,600;  328,450
368,049;  351,925;  376,600;  316,450
368,126;  314,625;  329,600;  318,450
368,204;  348,525;  333,600;  342,450
368,281;  351,825;  375,600;  360,450
368,359;  341,025;  352,600;  332,450
368,436;  343,725;  349,600;  336,450
368,514;  339,325;  344,600;  337,450
368,591;  343,725;  344,600;  347,450
368,668;  344,925;  375,600;  336,450
368,746;  362,925;  387,600;  352,450
368,823;  333,625;  338,600;  380,450
368,901;  336,925;  325,600;  328,450
368,978;  358,225;  329,600;  311,450
369,055;  352,025;  339,600;  332,450
369,133;  368,625;  371,600;  352,450
369,210;  330,425;  328,600;  366,450
369,287;  368,025;  364,600;  366,450
369,365;  369,425;  380,600;  367,450
369,442;  345,625;  347,600;  350,450
369,519;  307,725;  321,600;  298,450
369,596;  371,425;  359,600;  339,450
369,674;  333,925;  327,600;  283,450
369,751;  371,225;  337,600;  371,450
369,828;  356,425;  351,600;  337,450
369,905;  349,125;  358,600;  377,450
369,983;  332,025;  305,600;  327,450
370,060;  327,125;  323,600;  301,450
370,137;  365,925;  394,600;  401,450
370,214;  341,225;  321,600;  374,450
370,291;  347,825;  350,600;  340,450
370,368;  337,925;  356,600;  383,450
370,446;  324,125;  301,600;  350,450
370,523;  334,825;  360,600;  316,450
370,600;  351,525;  368,600;  319,450
370,677;  353,225;  348,600;  332,450
370,754;  334,925;  343,600;  331,450
370,831;  339,625;  352,600;  343,450
370,908;  375,125;  347,600;  374,450
370,985;  322,125;  333,600;  281,450
371,062;  341,525;  341,600;  344,450
371,139;  351,325;  361,600;  363,450
371,216;  353,825;  351,600;  347,450
371,293;  350,525;  329,600;  359,450
371,370;  327,425;  322,600;  314,450
371,447;  353,025;  346,600;  342,450
371,524;  373,525;  346,600;  357,450
371,601;  364,325;  371,600;  341,450
371,678;  364,525;  350,600;  355,450
371,755;  349,425;  366,600;  335,450
371,832;  379,925;  370,600;  375,450
371,909;  341,325;  370,600;  318,450
371,986;  384,425;  371,600;  394,450
372,063;  342,125;  324,600;  329,450
372,140;  357,225;  342,600;  359,450
372,216;  359,525;  356,600;  331,450
372,293;  338,325;  310,600;  347,450
372,370;  361,225;  375,600;  357,450
372,447;  362,625;  329,600;  372,450
372,524;  345,225;  350,600;  371,450
372,601;  349,025;  369,600;  321,450
372,677;  336,925;  344,600;  333,450
372,754;  338,225;  355,600;  360,450
372,831;  354,325;  356,600;  354,450
372,908;  363,225;  380,600;  385,450
372,984;  348,125;  362,600;  356,450
373,061;  338,225;  317,600;  334,450
373,138;  356,125;  367,600;  366,450
373,215;  346,725;  329,600;  317,450
373,291;  336,425;  347,600;  356,450
373,368;  348,825;  378,600;  362,450
373,445;  349,825;  374,600;  345,450
373,521;  355,125;  355,600;  341,450
373,598;  339,725;  354,600;  314,450
373,675;  331,925;  335,600;  358,450
373,751;  345,325;  336,600;  357,450
373,828;  341,825;  338,600;  346,450
373,904;  395,625;  409,600;  394,450
373,981;  323,525;  340,600;  337,450
374,057;  349,125;  343,600;  341,450
374,134;  327,025;  339,600;  316,450
374,211;  339,625;  330,600;  339,450
374,287;  320,525;  336,600;  339,450
374,364;  357,225;  379,600;  370,450
374,440;  320,325;  279,600;  284,450
374,517;  360,225;  367,600;  360,450
374,593;  320,825;  326,600;  299,450
374,670;  341,825;  335,600;  311,450
374,746;  350,425;  347,600;  339,450
374,823;  357,225;  389,600;  364,450
374,899;  364,125;  353,600;  394,450
374,975;  335,725;  336,600;  333,450
375,052;  322,025;  327,600;  327,450
375,128;  329,025;  281,600;  339,450
375,205;  346,425;  346,600;  378,450
375,281;  331,625;  294,600;  331,450
375,357;  354,825;  371,600;  352,450
375,434;  333,125;  313,600;  355,450
375,510;  346,225;  354,600;  323,450
375,586;  336,625;  356,600;  351,450
375,663;  308,925;  314,600;  307,450
375,739;  345,825;  355,600;  380,450
375,815;  352,925;  340,600;  317,450
375,892;  346,625;  340,600;  341,450
375,968;  343,525;  313,600;  325,450
376,044;  339,725;  370,600;  333,450
376,120;  332,625;  311,600;  364,450
376,197;  349,225;  361,600;  328,450
376,273;  339,325;  347,600;  334,450
376,349;  382,225;  386,600;  368,450
376,425;  358,525;  378,600;  336,450
376,501;  336,325;  329,600;  348,450
376,578;  365,825;  332,600;  426,450
376,654;  385,625;  393,600;  365,450
376,730;  358,725;  340,600;  352,450
376,806;  377,625;  346,600;  382,450
376,882;  367,225;  376,600;  332,450
376,958;  380,725;  367,600;  347,450
377,034;  328,325;  320,600;  296,450
377,111;  369,825;  393,600;  358,450
377,187;  380,125;  410,600;  383,450
377,263;  382,125;  397,600;  372,450
377,339;  348,725;  341,600;  319,450
377,415;  364,925;  339,600;  356,450
377,491;  341,025;  362,600;  325,450
377,567;  354,825;  340,600;  369,450
377,643;  383,825;  376,600;  362,450
377,719;  361,925;  368,600;  351,450
377,795;  340,125;  313,600;  350,450
377,871;  370,625;  366,600;  386,450
377,947;  346,125;  343,600;  352,450
378,023;  349,125;  355,600;  339,450
378,099;  341,025;  325,600;  367,450
378,174;  362,725;  364,600;  365,450
378,250;  362,125;  372,600;  389,450
378,326;  370,225;  369,600;  382,450
378,402;  367,125;  359,600;  343,450
378,478;  352,325;  340,600;  355,450
378,554;  371,725;  347,600;  374,450
378,630;  361,925;  369,600;  336,450
378,706;  350,625;  364,600;  321,450
378,781;  397,125;  387,600;  385,450
378,857;  360,725;  359,600;  347,450
378,933;  360,525;  359,600;  335,450
379,009;  349,025;  346,600;  342,450
379,085;  389,925;  419,600;  384,450
379,160;  373,825;  381,600;  366,450
379,236;  373,425;  359,600;  361,450
379,312;  357,025;  337,600;  365,450
379,387;  351,025;  372,600;  349,450
379,463;  360,225;  355,600;  344,450
379,539;  367,925;  408,600;  387,450
379,615;  351,325;  337,600;  364,450
379,690;  395,925;  420,600;  410,450
379,766;  376,925;  389,600;  370,450
379,842;  380,325;  385,600;  366,450
379,917;  375,725;  389,600;  369,450
379,993;  356,125;  370,600;  358,450
380,068;  358,125;  341,600;  349,450
380,144;  376,725;  398,600;  393,450
380,220;  380,625;  388,600;  391,450
380,295;  353,925;  356,600;  356,450
380,371;  345,025;  358,600;  361,450
380,446;  371,725;  418,600;  376,450
380,522;  345,925;  340,600;  360,450
380,597;  354,025;  377,600;  349,450
380,673;  408,225;  395,600;  384,450
380,748;  350,725;  338,600;  344,450
380,824;  374,425;  364,600;  362,450
380,899;  389,525;  371,600;  364,450
380,975;  356,225;  388,600;  402,450
381,050;  348,725;  363,600;  336,450
381,126;  380,325;  370,600;  362,450
381,201;  394,825;  407,600;  405,450
381,277;  365,825;  367,600;  390,450
381,352;  392,825;  389,600;  377,450
381,427;  370,125;  359,600;  370,450
381,503;  375,725;  394,600;  377,450
381,578;  366,925;  363,600;  360,450
381,653;  368,725;  381,600;  387,450
381,729;  366,125;  346,600;  360,450
381,804;  366,525;  373,600;  375,450
381,879;  375,425;  380,600;  366,450
381,955;  344,325;  343,600;  346,450
382,030;  363,025;  346,600;  339,450
382,105;  372,425;  372,600;  372,450
382,181;  362,325;  382,600;  367,450
382,256;  382,325;  373,600;  383,450
382,331;  368,825;  371,600;  375,450
382,406;  344,925;  368,600;  343,450
382,482;  367,725;  371,600;  380,450
382,557;  363,425;  362,600;  335,450
382,632;  372,025;  364,600;  365,450
382,707;  353,625;  393,600;  349,450
382,782;  376,725;  395,600;  385,450
382,857;  352,525;  373,600;  356,450
382,933;  351,225;  354,600;  349,450
383,008;  342,025;  325,600;  336,450
383,083;  385,225;  382,600;  360,450
383,158;  373,625;  375,600;  368,450
383,233;  361,225;  368,600;  362,450
383,308;  364,525;  360,600;  326,450
383,383;  379,325;  394,600;  390,450
383,458;  344,925;  344,600;  340,450
383,533;  337,425;  331,600;  334,450
383,608;  392,525;  367,600;  381,450
383,683;  379,625;  381,600;  367,450
383,758;  378,725;  398,600;  353,450
383,833;  361,925;  343,600;  350,450
383,908;  342,025;  321,600;  367,450
383,983;  344,325;  365,600;  328,450
384,058;  356,325;  340,600;  383,450
384,133;  368,125;  372,600;  376,450
384,208;  369,325;  395,600;  375,450
384,283;  349,425;  362,600;  321,450
384,358;  376,425;  392,600;  390,450
384,433;  349,425;  347,600;  341,450
384,508;  368,025;  339,600;  338,450
384,583;  374,125;  337,600;  355,450
384,658;  364,825;  352,600;  366,450
384,732;  328,025;  329,600;  319,450
384,807;  362,525;  347,600;  366,450
384,882;  366,525;  391,600;  349,450
384,957;  365,025;  348,600;  345,450
385,032;  374,025;  383,600;  373,450
385,106;  375,025;  342,600;  369,450
385,181;  354,025;  353,600;  359,450
385,256;  361,525;  367,600;  336,450
385,331;  377,425;  375,600;  364,450
385,405;  376,025;  383,600;  400,450
385,480;  365,925;  362,600;  372,450
385,555;  414,125;  402,600;  399,450
385,630;  387,125;  369,600;  370,450
385,704;  369,725;  353,600;  390,450
385,779;  369,025;  363,600;  368,450
385,854;  359,725;  364,600;  380,450
385,928;  355,825;  348,600;  365,450
386,003;  407,425;  390,600;  397,450
386,078;  373,025;  374,600;  369,450
386,152;  396,725;  391,600;  412,450
386,227;  353,425;  347,600;  354,450
386,301;  376,725;  389,600;  348,450
386,376;  346,525;  352,600;  346,450
386,450;  375,725;  356,600;  374,450
386,525;  375,225;  357,600;  376,450
386,600;  387,725;  367,600;  381,450
386,674;  363,025;  374,600;  364,450
386,749;  381,425;  395,600;  359,450
386,823;  380,325;  363,600;  377,450
386,898;  388,425;  386,600;  374,450
386,972;  388,125;  383,600;  354,450
387,047;  379,325;  368,600;  364,450
387,121;  377,325;  375,600;  363,450
387,195;  360,825;  359,600;  352,450
387,270;  385,025;  384,600;  385,450
387,344;  400,525;  429,600;  393,450
387,419;  380,625;  367,600;  412,450
387,493;  372,925;  371,600;  377,450
387,567;  358,425;  351,600;  336,450
387,642;  398,525;  383,600;  402,450
387,716;  372,625;  368,600;  378,450
387,790;  366,225;  337,600;  366,450
387,865;  362,725;  351,600;  364,450
387,939;  394,825;  405,600;  406,450
388,013;  386,125;  377,600;  417,450
388,088;  375,825;  361,600;  363,450
388,162;  370,225;  366,600;  355,450
388,236;  367,125;  381,600;  416,450
388,310;  367,025;  368,600;  361,450
388,385;  400,325;  324,600;  400,450
388,459;  373,125;  362,600;  379,450
388,533;  352,925;  378,600;  365,450
388,607;  362,425;  374,600;  378,450
388,682;  372,325;  369,600;  394,450
388,756;  375,025;  375,600;  378,450
388,830;  375,625;  378,600;  413,450
388,904;  383,225;  382,600;  382,450
388,978;  359,925;  368,600;  361,450
389,052;  369,525;  390,600;  343,450
389,126;  370,025;  353,600;  387,450
389,200;  367,025;  376,600;  362,450
389,275;  353,225;  382,600;  389,450
389,349;  371,225;  405,600;  380,450
389,423;  366,725;  380,600;  369,450
389,497;  369,925;  426,600;  377,450
389,571;  356,525;  391,600;  375,450
389,645;  369,225;  378,600;  388,450
389,719;  372,825;  384,600;  388,450
389,793;  339,525;  341,600;  322,450
389,867;  404,525;  410,600;  386,450
389,941;  380,925;  367,600;  369,450
390,015;  354,825;  348,600;  372,450
390,089;  357,725;  369,600;  344,450
390,163;  373,825;  368,600;  375,450
390,237;  383,625;  356,600;  361,450
390,310;  376,725;  393,600;  366,450
390,384;  380,025;  383,600;  344,450
390,458;  400,125;  414,600;  432,450
390,532;  388,625;  401,600;  395,450
390,606;  358,625;  361,600;  328,450
390,680;  364,425;  354,600;  373,450
390,754;  364,925;  373,600;  342,450
390,827;  395,625;  382,600;  388,450
390,901;  391,625;  362,600;  377,450
390,975;  370,725;  366,600;  368,450
391,049;  370,225;  374,600;  392,450
391,123;  363,225;  342,600;  367,450
391,196;  367,825;  344,600;  368,450
391,270;  379,825;  372,600;  366,450
391,344;  352,025;  384,600;  374,450
391,418;  373,525;  368,600;  366,450
391,491;  352,825;  362,600;  365,450
391,565;  367,825;  341,600;  346,450
391,639;  398,625;  379,600;  381,450
391,712;  385,125;  373,600;  385,450
391,786;  384,825;  401,600;  429,450
391,860;  372,325;  354,600;  354,450
391,933;  376,125;  366,600;  333,450
392,007;  371,925;  393,600;  364,450
392,081;  401,025;  404,600;  366,450
392,154;  372,825;  366,600;  394,450
392,228;  390,525;  392,600;  387,450
392,301;  377,025;  366,600;  402,450
392,375;  392,625;  394,600;  406,450
392,448;  387,925;  397,600;  375,450
392,522;  378,725;  382,600;  383,450
392,595;  370,325;  389,600;  365,450
392,669;  373,325;  386,600;  367,450
392,742;  394,725;  378,600;  401,450
392,816;  387,825;  376,600;  383,450
392,889;  397,125;  392,600;  401,450
392,963;  403,525;  400,600;  382,450
393,036;  380,825;  366,600;  401,450
393,110;  397,525;  388,600;  376,450
393,183;  397,125;  407,600;  399,450
393,257;  418,425;  437,600;  408,450
393,330;  364,225;  373,600;  391,450
393,403;  385,925;  410,600;  372,450
393,477;  357,025;  347,600;  364,450
393,550;  377,725;  413,600;  387,450
393,623;  377,825;  374,600;  402,450
393,697;  409,825;  404,600;  411,450
393,770;  373,825;  386,600;  364,450
393,843;  399,525;  419,600;  412,450
393,917;  392,525;  400,600;  407,450
393,990;  411,525;  378,600;  395,450
394,063;  383,525;  403,600;  375,450
394,136;  386,025;  390,600;  390,450
394,210;  396,225;  393,600;  380,450
394,283;  397,325;  385,600;  395,450
394,356;  395,125;  410,600;  373,450
394,429;  400,425;  399,600;  357,450
394,502;  382,325;  404,600;  373,450
394,576;  410,525;  416,600;  404,450
394,649;  375,925;  376,600;  381,450
394,722;  400,325;  390,600;  390,450
394,795;  413,925;  413,600;  406,450
394,868;  377,525;  369,600;  390,450
394,941;  354,225;  371,600;  368,450
395,014;  422,325;  419,600;  416,450
395,088;  394,525;  404,600;  391,450
395,161;  391,425;  402,600;  399,450
395,234;  400,425;  390,600;  397,450
395,307;  401,125;  413,600;  388,450
395,380;  379,825;  393,600;  392,450
395,453;  431,025;  439,600;  425,450
395,526;  409,425;  430,600;  407,450
395,599;  424,825;  422,600;  432,450
395,672;  401,125;  378,600;  408,450
395,745;  416,025;  400,600;  390,450
395,818;  371,425;  385,600;  376,450
395,891;  383,725;  408,600;  379,450
395,964;  425,425;  398,600;  436,450
396,036;  388,125;  400,600;  390,450
396,109;  392,325;  399,600;  381,450
396,182;  385,325;  392,600;  382,450
396,255;  391,425;  417,600;  383,450
396,328;  398,925;  412,600;  432,450
396,401;  369,725;  363,600;  381,450
396,474;  389,925;  399,600;  360,450
396,547;  404,425;  411,600;  417,450
396,619;  398,525;  384,600;  393,450
396,692;  403,925;  371,600;  354,450
396,765;  370,525;  375,600;  376,450
396,838;  387,025;  367,600;  390,450
396,911;  377,925;  363,600;  352,450
396,983;  390,125;  385,600;  396,450
397,056;  360,525;  375,600;  367,450
397,129;  387,825;  369,600;  368,450
397,201;  382,925;  413,600;  395,450
397,274;  395,825;  379,600;  382,450
397,347;  358,925;  364,600;  378,450
397,420;  388,325;  373,600;  379,450
397,492;  385,725;  404,600;  380,450
397,565;  380,325;  372,600;  365,450
397,637;  360,825;  371,600;  361,450
397,710;  350,325;  349,600;  341,450
397,783;  413,225;  444,600;  401,450
397,855;  345,825;  363,600;  346,450
397,928;  361,925;  381,600;  330,450
398,000;  392,325;  369,600;  384,450
398,073;  381,625;  376,600;  372,450
398,146;  374,625;  365,600;  358,450
398,218;  385,525;  417,600;  363,450
398,291;  379,725;  398,600;  385,450
398,363;  374,825;  370,600;  358,450
398,436;  372,825;  369,600;  360,450
398,508;  375,125;  378,600;  369,450
398,581;  381,925;  368,600;  367,450
398,653;  378,225;  318,600;  382,450
398,726;  375,425;  376,600;  371,450
398,798;  380,925;  390,600;  376,450
398,870;  394,225;  374,600;  374,450
398,943;  368,625;  371,600;  357,450
399,015;  360,725;  362,600;  383,450
399,088;  389,225;  377,600;  373,450
399,160;  366,125;  370,600;  348,450
399,232;  343,425;  332,600;  349,450
399,305;  369,725;  379,600;  362,450
399,377;  372,825;  350,600;  343,450
399,449;  375,525;  398,600;  388,450
399,522;  421,125;  442,600;  416,450
399,594;  364,625;  359,600;  346,450
399,666;  381,125;  393,600;  361,450
399,738;  371,825;  378,600;  375,450
399,811;  370,725;  370,600;  388,450
399,883;  386,225;  392,600;  378,450
399,955;  379,525;  429,600;  331,450
400,027;  345,625;  342,600;  364,450
400,100;  397,925;  402,600;  427,450
400,172;  358,225;  360,600;  354,450
400,244;  365,925;  369,600;  361,450
400,316;  395,225;  396,600;  381,450
400,388;  378,725;  408,600;  368,450
400,460;  356,925;  350,600;  359,450
400,532;  350,725;  329,600;  337,450
400,605;  375,925;  378,600;  368,450
400,677;  395,925;  389,600;  380,450
400,749;  391,825;  403,600;  406,450
400,821;  383,225;  384,600;  385,450
400,893;  380,025;  364,600;  384,450
400,965;  393,225;  390,600;  380,450
401,037;  381,625;  376,600;  402,450
401,109;  376,725;  363,600;  365,450
401,181;  378,725;  383,600;  398,450

