p
Integration time [ms]:   0,150
Averaging Nr. [scans]: 1
Smoothing Nr. [pixels]: 0
Data measured with spectrometer [name]: 7416147SP
Wave   ;Sample   ;Dark     ;Reference
[nm]   ;[counts] ;[counts] ;[counts] 

230,218;  280,925;  284,600;  274,450
230,311;  332,925;  306,600;  296,450
230,404;  307,925;  298,600;  326,450
230,497;  277,925;  295,600;  309,450
230,591;  338,925;  342,600;  328,450
230,684;  336,925;  317,600;  333,450
230,777;  298,925;  318,600;  312,450
230,870;  304,925;  330,600;  321,450
230,964;  299,925;  321,600;  306,450
231,057;  299,925;  306,600;  332,450
231,150;  314,925;  320,600;  304,450
231,243;  337,925;  310,600;  310,450
231,336;  328,925;  334,600;  326,450
231,430;  324,925;  320,600;  279,450
231,523;  320,925;  346,600;  304,450
231,616;  305,925;  297,600;  290,450
231,709;  347,925;  328,600;  315,450
231,802;  316,925;  280,600;  295,450
231,895;  320,925;  293,600;  313,450
231,988;  326,925;  312,600;  320,450
232,082;  297,925;  316,600;  281,450
232,175;  296,925;  289,600;  279,450
232,268;  298,925;  319,600;  301,450
232,361;  342,925;  288,600;  264,450
232,454;  315,925;  297,600;  320,450
232,547;  333,925;  333,600;  272,450
232,640;  286,925;  314,600;  287,450
232,733;  339,925;  297,600;  300,450
232,826;  311,925;  303,600;  270,450
232,919;  298,925;  318,600;  294,450
233,012;  291,925;  322,600;  292,450
233,105;  309,925;  318,600;  283,450
233,199;  322,925;  324,600;  298,450
233,292;  310,925;  293,600;  307,450
233,385;  263,925;  262,600;  233,450
233,478;  306,925;  302,600;  272,450
233,571;  353,925;  314,600;  293,450
233,664;  325,925;  341,600;  283,450
233,757;  311,925;  254,600;  231,450
233,850;  300,925;  272,600;  248,450
233,943;  297,925;  298,600;  272,450
234,035;  281,925;  318,600;  292,450
234,128;  293,925;  282,600;  265,450
234,221;  292,925;  310,600;  293,450
234,314;  312,925;  333,600;  318,450
234,407;  291,925;  338,600;  286,450
234,500;  291,925;  286,600;  280,450
234,593;  303,925;  280,600;  290,450
234,686;  296,925;  276,600;  256,450
234,779;  284,925;  270,600;  275,450
234,872;  254,925;  276,600;  261,450
234,965;  272,925;  298,600;  286,450
235,058;  292,925;  269,600;  263,450
235,150;  306,925;  311,600;  286,450
235,243;  284,925;  280,600;  311,450
235,336;  309,925;  317,600;  296,450
235,429;  286,925;  258,600;  241,450
235,522;  348,925;  352,600;  293,450
235,615;  279,925;  309,600;  253,450
235,707;  270,925;  289,600;  277,450
235,800;  293,925;  302,600;  268,450
235,893;  301,925;  328,600;  262,450
235,986;  308,925;  305,600;  312,450
236,079;  270,925;  310,600;  308,450
236,171;  301,925;  272,600;  270,450
236,264;  329,925;  310,600;  282,450
236,357;  301,925;  289,600;  297,450
236,450;  338,925;  314,600;  308,450
236,542;  279,925;  286,600;  258,450
236,635;  327,925;  319,600;  287,450
236,728;  259,925;  276,600;  273,450
236,821;  287,925;  270,600;  268,450
236,913;  285,925;  326,600;  268,450
237,006;  284,925;  300,600;  257,450
237,099;  308,925;  289,600;  271,450
237,191;  328,925;  345,600;  288,450
237,284;  280,925;  256,600;  282,450
237,377;  301,925;  294,600;  312,450
237,470;  312,925;  291,600;  256,450
237,562;  280,925;  266,600;  261,450
237,655;  346,925;  342,600;  294,450
237,747;  292,925;  325,600;  263,450
237,840;  329,925;  292,600;  302,450
237,933;  314,925;  327,600;  284,450
238,025;  302,925;  338,600;  306,450
238,118;  303,925;  306,600;  287,450
238,211;  296,925;  282,600;  227,450
238,303;  313,925;  277,600;  273,450
238,396;  267,925;  289,600;  270,450
238,488;  311,925;  300,600;  281,450
238,581;  298,925;  306,600;  235,450
238,673;  270,925;  304,600;  273,450
238,766;  269,925;  268,600;  282,450
238,859;  300,925;  282,600;  277,450
238,951;  258,925;  295,600;  280,450
239,044;  291,925;  270,600;  283,450
239,136;  311,925;  269,600;  284,450
239,229;  309,925;  297,600;  291,450
239,321;  284,925;  262,600;  248,450
239,414;  285,925;  289,600;  288,450
239,506;  316,925;  280,600;  267,450
239,599;  328,925;  352,600;  292,450
239,691;  291,925;  306,600;  269,450
239,784;  324,925;  296,600;  288,450
239,876;  273,925;  280,600;  288,450
239,969;  300,925;  287,600;  281,450
240,061;  250,925;  277,600;  262,450
240,153;  246,925;  260,600;  278,450
240,246;  306,925;  295,600;  292,450
240,338;  323,925;  309,600;  324,450
240,431;  276,925;  277,600;  282,450
240,523;  283,925;  300,600;  237,450
240,615;  287,925;  293,600;  321,450
240,708;  317,925;  355,600;  292,450
240,800;  314,925;  302,600;  288,450
240,893;  290,925;  274,600;  261,450
240,985;  292,925;  321,600;  270,450
241,077;  286,925;  268,600;  262,450
241,170;  295,925;  313,600;  286,450
241,262;  295,925;  284,600;  284,450
241,354;  259,925;  246,600;  244,450
241,447;  254,925;  286,600;  271,450
241,539;  269,925;  295,600;  247,450
241,631;  340,925;  312,600;  279,450
241,724;  262,925;  261,600;  246,450
241,816;  268,925;  258,600;  264,450
241,908;  257,925;  278,600;  263,450
242,000;  291,925;  283,600;  263,450
242,093;  306,925;  303,600;  261,450
242,185;  291,925;  306,600;  269,450
242,277;  258,925;  282,600;  242,450
242,369;  281,925;  278,600;  269,450
242,462;  270,925;  271,600;  247,450
242,554;  273,925;  253,600;  266,450
242,646;  296,925;  282,600;  270,450
242,738;  293,925;  320,600;  281,450
242,830;  261,925;  292,600;  230,450
242,923;  293,925;  309,600;  303,450
243,015;  257,925;  288,600;  269,450
243,107;  252,925;  280,600;  253,450
243,199;  285,925;  309,600;  300,450
243,291;  255,925;  319,600;  253,450
243,383;  277,925;  240,600;  273,450
243,476;  273,925;  257,600;  282,450
243,568;  270,925;  293,600;  284,450
243,660;  279,925;  260,600;  268,450
243,752;  308,925;  305,600;  270,450
243,844;  321,925;  299,600;  284,450
243,936;  309,925;  316,600;  299,450
244,028;  345,925;  332,600;  290,450
244,120;  286,925;  267,600;  230,450
244,212;  298,925;  298,600;  289,450
244,305;  273,925;  267,600;  270,450
244,397;  323,925;  315,600;  267,450
244,489;  329,925;  303,600;  285,450
244,581;  283,925;  301,600;  279,450
244,673;  269,925;  286,600;  252,450
244,765;  291,925;  277,600;  293,450
244,857;  280,925;  303,600;  251,450
244,949;  313,925;  305,600;  282,450
245,041;  276,925;  250,600;  223,450
245,133;  289,925;  294,600;  292,450
245,225;  300,925;  258,600;  248,450
245,317;  274,925;  253,600;  267,450
245,409;  257,925;  282,600;  263,450
245,501;  312,925;  286,600;  265,450
245,593;  309,925;  328,600;  278,450
245,685;  294,925;  330,600;  286,450
245,776;  273,925;  298,600;  267,450
245,868;  307,925;  308,600;  263,450
245,960;  250,925;  242,600;  252,450
246,052;  305,925;  291,600;  307,450
246,144;  287,925;  282,600;  285,450
246,236;  291,925;  296,600;  257,450
246,328;  300,925;  285,600;  287,450
246,420;  301,925;  282,600;  270,450
246,512;  355,925;  303,600;  295,450
246,604;  290,925;  280,600;  278,450
246,695;  270,925;  275,600;  268,450
246,787;  298,925;  288,600;  299,450
246,879;  307,925;  296,600;  275,450
246,971;  288,925;  305,600;  285,450
247,063;  283,925;  281,600;  253,450
247,155;  337,925;  295,600;  240,450
247,246;  289,925;  305,600;  285,450
247,338;  306,925;  297,600;  287,450
247,430;  304,925;  298,600;  312,450
247,522;  332,925;  294,600;  294,450
247,613;  311,925;  287,600;  278,450
247,705;  311,925;  302,600;  286,450
247,797;  321,925;  322,600;  301,450
247,889;  302,925;  294,600;  286,450
247,980;  328,925;  318,600;  273,450
248,072;  320,925;  315,600;  275,450
248,164;  348,925;  368,600;  297,450
248,256;  289,925;  280,600;  302,450
248,347;  329,925;  312,600;  275,450
248,439;  302,925;  302,600;  260,450
248,531;  308,925;  301,600;  297,450
248,622;  310,925;  315,600;  318,450
248,714;  287,925;  303,600;  257,450
248,806;  349,925;  301,600;  287,450
248,897;  313,925;  266,600;  290,450
248,989;  286,925;  260,600;  246,450
249,081;  285,925;  291,600;  305,450
249,172;  326,925;  289,600;  264,450
249,264;  285,925;  310,600;  303,450
249,356;  301,925;  274,600;  253,450
249,447;  281,925;  287,600;  283,450
249,539;  321,925;  289,600;  288,450
249,630;  297,925;  296,600;  286,450
249,722;  327,925;  310,600;  305,450
249,813;  301,925;  302,600;  256,450
249,905;  325,925;  319,600;  291,450
249,997;  267,925;  270,600;  248,450
250,088;  301,925;  295,600;  285,450
250,180;  306,925;  280,600;  288,450
250,271;  285,925;  296,600;  268,450
250,363;  317,925;  329,600;  307,450
250,454;  282,925;  268,600;  238,450
250,546;  297,925;  271,600;  272,450
250,637;  275,925;  285,600;  242,450
250,729;  285,925;  267,600;  250,450
250,820;  321,925;  306,600;  297,450
250,912;  303,925;  299,600;  243,450
251,003;  345,925;  285,600;  296,450
251,095;  312,925;  296,600;  273,450
251,186;  279,925;  269,600;  253,450
251,277;  287,925;  276,600;  290,450
251,369;  292,925;  295,600;  275,450
251,460;  271,925;  272,600;  272,450
251,552;  284,925;  293,600;  292,450
251,643;  296,925;  292,600;  276,450
251,735;  294,925;  303,600;  241,450
251,826;  300,925;  313,600;  259,450
251,917;  320,925;  325,600;  258,450
252,009;  368,925;  338,600;  254,450
252,100;  344,925;  343,600;  266,450
252,191;  351,925;  337,600;  260,450
252,283;  342,925;  328,600;  299,450
252,374;  368,925;  372,600;  289,450
252,465;  424,925;  390,600;  301,450
252,557;  416,925;  393,600;  251,450
252,648;  378,925;  378,600;  258,450
252,739;  431,925;  397,600;  267,450
252,831;  424,925;  439,600;  250,450
252,922;  464,925;  440,600;  266,450
253,013;  496,925;  520,600;  241,450
253,104;  601,925;  576,600;  255,450
253,196;  680,925;  712,600;  265,450
253,287;  882,925;  807,600;  289,450
253,378; 1224,925; 1233,600;  257,450
253,469; 4264,925; 4083,600;  246,450
253,561;23131,926;23239,600;  253,450
253,652;42872,926;42949,602;  272,450
253,743; 5729,925; 5893,600;  210,450
253,834;  620,925;  622,600;  260,450
253,926;  536,925;  531,600;  249,450
254,017;  490,925;  459,600;  280,450
254,108;  440,925;  528,600;  290,450
254,199;  399,925;  418,600;  277,450
254,290;  438,925;  380,600;  290,450
254,381;  420,925;  429,600;  276,450
254,472;  427,925;  437,600;  250,450
254,564;  402,925;  411,600;  327,450
254,655;  410,925;  392,600;  304,450
254,746;  343,925;  345,600;  225,450
254,837;  432,925;  372,600;  282,450
254,928;  330,925;  368,600;  247,450
255,019;  363,925;  375,600;  281,450
255,110;  353,925;  357,600;  302,450
255,201;  376,925;  318,600;  284,450
255,292;  358,925;  381,600;  271,450
255,383;  337,925;  347,600;  265,450
255,474;  372,925;  329,600;  248,450
255,566;  349,925;  366,600;  271,450
255,657;  348,925;  350,600;  306,450
255,748;  265,925;  292,600;  235,450
255,839;  311,925;  331,600;  282,450
255,930;  308,925;  292,600;  302,450
256,021;  355,925;  336,600;  297,450
256,112;  328,925;  296,600;  257,450
256,203;  351,925;  339,600;  315,450
256,294;  324,925;  321,600;  265,450
256,384;  300,925;  279,600;  261,450
256,475;  332,925;  289,600;  284,450
256,566;  284,925;  297,600;  274,450
256,657;  306,925;  291,600;  267,450
256,748;  316,925;  302,600;  280,450
256,839;  282,925;  281,600;  274,450
256,930;  288,925;  278,600;  260,450
257,021;  336,925;  328,600;  283,450
257,112;  309,925;  311,600;  327,450
257,203;  238,925;  268,600;  240,450
257,294;  281,925;  276,600;  257,450
257,385;  304,925;  284,600;  272,450
257,475;  264,925;  277,600;  255,450
257,566;  299,925;  313,600;  267,450
257,657;  269,925;  339,600;  264,450
257,748;  277,925;  283,600;  252,450
257,839;  290,925;  319,600;  306,450
257,930;  308,925;  276,600;  275,450
258,020;  278,925;  278,600;  281,450
258,111;  275,925;  285,600;  256,450
258,202;  303,925;  309,600;  258,450
258,293;  271,925;  267,600;  255,450
258,384;  316,925;  329,600;  295,450
258,474;  323,925;  296,600;  244,450
258,565;  284,925;  250,600;  252,450
258,656;  310,925;  306,600;  257,450
258,747;  292,925;  293,600;  255,450
258,837;  266,925;  266,600;  231,450
258,928;  286,925;  247,600;  280,450
259,019;  288,925;  272,600;  264,450
259,109;  275,925;  264,600;  254,450
259,200;  302,925;  292,600;  291,450
259,291;  269,925;  246,600;  297,450
259,381;  325,925;  309,600;  264,450
259,472;  294,925;  299,600;  272,450
259,563;  318,925;  307,600;  273,450
259,653;  257,925;  281,600;  247,450
259,744;  249,925;  280,600;  260,450
259,835;  305,925;  284,600;  274,450
259,925;  245,925;  257,600;  276,450
260,016;  303,925;  303,600;  282,450
260,107;  265,925;  264,600;  265,450
260,197;  295,925;  279,600;  258,450
260,288;  289,925;  263,600;  273,450
260,378;  287,925;  274,600;  244,450
260,469;  304,925;  299,600;  273,450
260,560;  287,925;  267,600;  276,450
260,650;  270,925;  269,600;  265,450
260,741;  287,925;  279,600;  256,450
260,831;  298,925;  246,600;  276,450
260,922;  272,925;  271,600;  258,450
261,012;  292,925;  271,600;  256,450
261,103;  317,925;  320,600;  294,450
261,193;  304,925;  317,600;  320,450
261,284;  265,925;  256,600;  254,450
261,374;  338,925;  295,600;  253,450
261,465;  324,925;  321,600;  304,450
261,555;  263,925;  271,600;  275,450
261,646;  272,925;  290,600;  300,450
261,736;  311,925;  265,600;  287,450
261,827;  279,925;  293,600;  256,450
261,917;  296,925;  294,600;  344,450
262,007;  286,925;  269,600;  289,450
262,098;  328,925;  334,600;  256,450
262,188;  330,925;  316,600;  305,450
262,279;  326,925;  290,600;  292,450
262,369;  278,925;  276,600;  282,450
262,459;  283,925;  262,600;  260,450
262,550;  302,925;  314,600;  290,450
262,640;  297,925;  261,600;  274,450
262,731;  291,925;  302,600;  298,450
262,821;  293,925;  287,600;  323,450
262,911;  294,925;  312,600;  268,450
263,002;  291,925;  278,600;  271,450
263,092;  323,925;  292,600;  309,450
263,182;  308,925;  280,600;  257,450
263,273;  281,925;  277,600;  261,450
263,363;  319,925;  309,600;  284,450
263,453;  268,925;  266,600;  259,450
263,543;  322,925;  289,600;  326,450
263,634;  270,925;  263,600;  262,450
263,724;  287,925;  278,600;  276,450
263,814;  300,925;  304,600;  288,450
263,904;  288,925;  270,600;  267,450
263,995;  345,925;  306,600;  321,450
264,085;  275,925;  301,600;  259,450
264,175;  298,925;  284,600;  306,450
264,265;  320,925;  305,600;  298,450
264,356;  262,925;  260,600;  289,450
264,446;  309,925;  296,600;  298,450
264,536;  288,925;  270,600;  297,450
264,626;  303,925;  315,600;  295,450
264,716;  292,925;  330,600;  277,450
264,806;  299,925;  327,600;  306,450
264,897;  271,925;  255,600;  273,450
264,987;  320,925;  310,600;  286,450
265,077;  302,925;  297,600;  285,450
265,167;  354,925;  394,600;  346,450
265,257;  334,925;  333,600;  273,450
265,347;  320,925;  331,600;  286,450
265,437;  300,925;  304,600;  289,450
265,527;  299,925;  314,600;  292,450
265,617;  301,925;  292,600;  265,450
265,708;  319,925;  330,600;  308,450
265,798;  298,925;  315,600;  301,450
265,888;  302,925;  275,600;  270,450
265,978;  274,925;  274,600;  242,450
266,068;  299,925;  291,600;  316,450
266,158;  294,925;  288,600;  254,450
266,248;  273,925;  305,600;  248,450
266,338;  329,925;  307,600;  293,450
266,428;  299,925;  294,600;  259,450
266,518;  328,925;  321,600;  320,450
266,608;  321,925;  245,600;  273,450
266,698;  249,925;  284,600;  256,450
266,788;  271,925;  263,600;  248,450
266,878;  340,925;  350,600;  317,450
266,968;  296,925;  282,600;  304,450
267,058;  301,925;  280,600;  292,450
267,147;  309,925;  327,600;  300,450
267,237;  306,925;  293,600;  276,450
267,327;  278,925;  292,600;  276,450
267,417;  314,925;  320,600;  264,450
267,507;  305,925;  297,600;  294,450
267,597;  289,925;  273,600;  272,450
267,687;  311,925;  268,600;  286,450
267,777;  269,925;  267,600;  270,450
267,867;  331,925;  321,600;  296,450
267,956;  325,925;  282,600;  257,450
268,046;  281,925;  306,600;  298,450
268,136;  292,925;  265,600;  291,450
268,226;  295,925;  269,600;  261,450
268,316;  254,925;  266,600;  262,450
268,406;  277,925;  268,600;  338,450
268,495;  289,925;  278,600;  259,450
268,585;  316,925;  304,600;  263,450
268,675;  266,925;  296,600;  260,450
268,765;  319,925;  296,600;  287,450
268,854;  285,925;  277,600;  291,450
268,944;  285,925;  288,600;  299,450
269,034;  278,925;  313,600;  279,450
269,124;  289,925;  283,600;  286,450
269,213;  282,925;  277,600;  255,450
269,303;  283,925;  290,600;  247,450
269,393;  291,925;  265,600;  307,450
269,483;  311,925;  338,600;  273,450
269,572;  259,925;  295,600;  243,450
269,662;  289,925;  286,600;  301,450
269,752;  324,925;  320,600;  299,450
269,841;  270,925;  270,600;  247,450
269,931;  270,925;  264,600;  276,450
270,021;  304,925;  299,600;  295,450
270,110;  291,925;  286,600;  268,450
270,200;  250,925;  329,600;  299,450
270,289;  287,925;  258,600;  279,450
270,379;  289,925;  315,600;  282,450
270,469;  298,925;  297,600;  273,450
270,558;  282,925;  300,600;  286,450
270,648;  275,925;  266,600;  245,450
270,737;  266,925;  288,600;  271,450
270,827;  321,925;  279,600;  263,450
270,916;  283,925;  266,600;  280,450
271,006;  261,925;  287,600;  287,450
271,096;  308,925;  312,600;  334,450
271,185;  291,925;  307,600;  299,450
271,275;  309,925;  305,600;  279,450
271,364;  290,925;  300,600;  286,450
271,454;  305,925;  301,600;  273,450
271,543;  308,925;  295,600;  279,450
271,633;  266,925;  293,600;  257,450
271,722;  267,925;  240,600;  257,450
271,812;  285,925;  255,600;  299,450
271,901;  267,925;  276,600;  286,450
271,990;  276,925;  293,600;  267,450
272,080;  269,925;  282,600;  284,450
272,169;  324,925;  339,600;  288,450
272,259;  283,925;  319,600;  275,450
272,348;  282,925;  291,600;  305,450
272,438;  292,925;  302,600;  301,450
272,527;  325,925;  288,600;  290,450
272,616;  294,925;  295,600;  300,450
272,706;  320,925;  319,600;  313,450
272,795;  335,925;  285,600;  290,450
272,884;  304,925;  302,600;  294,450
272,974;  343,925;  281,600;  279,450
273,063;  333,925;  361,600;  290,450
273,152;  292,925;  299,600;  296,450
273,242;  316,925;  296,600;  311,450
273,331;  314,925;  306,600;  299,450
273,420;  294,925;  296,600;  313,450
273,510;  337,925;  292,600;  311,450
273,599;  288,925;  323,600;  312,450
273,688;  322,925;  311,600;  299,450
273,778;  313,925;  266,600;  259,450
273,867;  329,925;  287,600;  312,450
273,956;  315,925;  303,600;  273,450
274,045;  272,925;  263,600;  236,450
274,135;  335,925;  317,600;  317,450
274,224;  311,925;  316,600;  295,450
274,313;  323,925;  299,600;  294,450
274,402;  296,925;  263,600;  266,450
274,491;  298,925;  277,600;  286,450
274,581;  292,925;  302,600;  266,450
274,670;  292,925;  311,600;  303,450
274,759;  290,925;  303,600;  283,450
274,848;  298,925;  275,600;  301,450
274,937;  299,925;  276,600;  293,450
275,026;  314,925;  298,600;  255,450
275,116;  304,925;  323,600;  309,450
275,205;  279,925;  263,600;  231,450
275,294;  319,925;  333,600;  302,450
275,383;  286,925;  253,600;  278,450
275,472;  285,925;  286,600;  299,450
275,561;  278,925;  299,600;  300,450
275,650;  276,925;  289,600;  281,450
275,739;  284,925;  268,600;  287,450
275,828;  253,925;  262,600;  259,450
275,917;  297,925;  318,600;  305,450
276,006;  305,925;  255,600;  304,450
276,095;  290,925;  276,600;  294,450
276,184;  296,925;  317,600;  317,450
276,273;  287,925;  270,600;  297,450
276,362;  247,925;  260,600;  256,450
276,451;  297,925;  271,600;  286,450
276,540;  295,925;  259,600;  271,450
276,629;  280,925;  274,600;  290,450
276,718;  284,925;  268,600;  258,450
276,807;  266,925;  275,600;  256,450
276,896;  287,925;  269,600;  277,450
276,985;  296,925;  287,600;  255,450
277,074;  302,925;  270,600;  267,450
277,163;  320,925;  289,600;  281,450
277,252;  285,925;  269,600;  278,450
277,341;  274,925;  272,600;  248,450
277,430;  306,925;  239,600;  255,450
277,519;  305,925;  304,600;  293,450
277,608;  270,925;  254,600;  244,450
277,696;  265,925;  272,600;  279,450
277,785;  295,925;  255,600;  276,450
277,874;  265,925;  285,600;  259,450
277,963;  249,925;  273,600;  248,450
278,052;  239,925;  264,600;  286,450
278,141;  317,925;  289,600;  267,450
278,229;  270,925;  279,600;  278,450
278,318;  269,925;  278,600;  269,450
278,407;  293,925;  288,600;  264,450
278,496;  300,925;  319,600;  277,450
278,585;  283,925;  288,600;  297,450
278,673;  257,925;  257,600;  251,450
278,762;  285,925;  238,600;  264,450
278,851;  263,925;  293,600;  272,450
278,940;  292,925;  293,600;  318,450
279,028;  292,925;  271,600;  284,450
279,117;  291,925;  290,600;  283,450
279,206;  301,925;  260,600;  254,450
279,294;  312,925;  280,600;  268,450
279,383;  254,925;  272,600;  289,450
279,472;  300,925;  311,600;  252,450
279,561;  296,925;  264,600;  275,450
279,649;  299,925;  305,600;  283,450
279,738;  254,925;  229,600;  266,450
279,827;  323,925;  285,600;  272,450
279,915;  304,925;  283,600;  248,450
280,004;  280,925;  273,600;  285,450
280,092;  340,925;  286,600;  275,450
280,181;  311,925;  284,600;  249,450
280,270;  278,925;  280,600;  236,450
280,358;  304,925;  299,600;  288,450
280,447;  282,925;  246,600;  240,450
280,535;  282,925;  284,600;  259,450
280,624;  252,925;  291,600;  256,450
280,713;  293,925;  267,600;  266,450
280,801;  252,925;  303,600;  274,450
280,890;  289,925;  262,600;  274,450
280,978;  253,925;  267,600;  239,450
281,067;  272,925;  229,600;  244,450
281,155;  273,925;  267,600;  279,450
281,244;  312,925;  301,600;  299,450
281,332;  293,925;  252,600;  297,450
281,421;  289,925;  273,600;  229,450
281,509;  296,925;  266,600;  268,450
281,598;  265,925;  255,600;  241,450
281,686;  278,925;  300,600;  277,450
281,775;  271,925;  283,600;  280,450
281,863;  291,925;  244,600;  264,450
281,951;  278,925;  254,600;  256,450
282,040;  307,925;  289,600;  320,450
282,128;  287,925;  289,600;  290,450
282,217;  278,925;  255,600;  246,450
282,305;  324,925;  291,600;  280,450
282,393;  285,925;  332,600;  266,450
282,482;  300,925;  314,600;  268,450
282,570;  284,925;  274,600;  279,450
282,658;  263,925;  295,600;  277,450
282,747;  270,925;  257,600;  278,450
282,835;  273,925;  319,600;  305,450
282,923;  296,925;  230,600;  262,450
283,012;  296,925;  268,600;  305,450
283,100;  244,925;  263,600;  230,450
283,188;  289,925;  244,600;  243,450
283,277;  285,925;  279,600;  282,450
283,365;  256,925;  252,600;  253,450
283,453;  244,925;  253,600;  228,450
283,542;  296,925;  293,600;  259,450
283,630;  259,925;  259,600;  271,450
283,718;  255,925;  271,600;  247,450
283,806;  254,925;  225,600;  226,450
283,894;  288,925;  276,600;  274,450
283,983;  276,925;  256,600;  279,450
284,071;  252,925;  307,600;  269,450
284,159;  308,925;  319,600;  305,450
284,247;  279,925;  296,600;  287,450
284,335;  286,925;  267,600;  263,450
284,424;  290,925;  287,600;  269,450
284,512;  280,925;  295,600;  248,450
284,600;  294,925;  261,600;  236,450
284,688;  306,925;  297,600;  325,450
284,776;  261,925;  259,600;  277,450
284,864;  299,925;  327,600;  300,450
284,952;  262,925;  291,600;  276,450
285,041;  337,925;  286,600;  304,450
285,129;  305,925;  304,600;  290,450
285,217;  281,925;  309,600;  280,450
285,305;  312,925;  297,600;  304,450
285,393;  253,925;  255,600;  268,450
285,481;  269,925;  292,600;  274,450
285,569;  287,925;  297,600;  281,450
285,657;  295,925;  272,600;  276,450
285,745;  282,925;  334,600;  282,450
285,833;  271,925;  277,600;  294,450
285,921;  287,925;  301,600;  299,450
286,009;  282,925;  308,600;  308,450
286,097;  300,925;  313,600;  288,450
286,185;  295,925;  294,600;  259,450
286,273;  274,925;  302,600;  257,450
286,361;  302,925;  322,600;  287,450
286,449;  291,925;  305,600;  260,450
286,537;  300,925;  300,600;  248,450
286,625;  280,925;  300,600;  275,450
286,713;  257,925;  262,600;  270,450
286,801;  305,925;  320,600;  307,450
286,889;  320,925;  304,600;  282,450
286,976;  296,925;  271,600;  266,450
287,064;  298,925;  297,600;  309,450
287,152;  291,925;  332,600;  299,450
287,240;  293,925;  297,600;  327,450
287,328;  308,925;  249,600;  245,450
287,416;  252,925;  295,600;  277,450
287,504;  259,925;  302,600;  274,450
287,591;  270,925;  317,600;  307,450
287,679;  279,925;  272,600;  275,450
287,767;  292,925;  270,600;  292,450
287,855;  320,925;  271,600;  284,450
287,943;  316,925;  312,600;  269,450
288,030;  299,925;  246,600;  293,450
288,118;  296,925;  325,600;  295,450
288,206;  292,925;  264,600;  290,450
288,294;  278,925;  273,600;  292,450
288,382;  272,925;  301,600;  288,450
288,469;  326,925;  324,600;  274,450
288,557;  298,925;  276,600;  275,450
288,645;  310,925;  321,600;  281,450
288,732;  305,925;  274,600;  276,450
288,820;  280,925;  334,600;  270,450
288,908;  293,925;  295,600;  295,450
288,995;  327,925;  295,600;  277,450
289,083;  283,925;  278,600;  278,450
289,171;  337,925;  328,600;  310,450
289,258;  338,925;  402,600;  311,450
289,346;  447,925;  433,600;  329,450
289,434;  330,925;  345,600;  318,450
289,521;  258,925;  298,600;  281,450
289,609;  319,925;  317,600;  309,450
289,697;  331,925;  310,600;  321,450
289,784;  266,925;  300,600;  284,450
289,872;  287,925;  314,600;  313,450
289,959;  315,925;  274,600;  262,450
290,047;  296,925;  268,600;  272,450
290,134;  264,925;  286,600;  264,450
290,222;  305,925;  317,600;  294,450
290,310;  300,925;  310,600;  280,450
290,397;  354,925;  302,600;  319,450
290,485;  296,925;  291,600;  284,450
290,572;  310,925;  286,600;  318,450
290,660;  303,925;  300,600;  293,450
290,747;  294,925;  292,600;  290,450
290,835;  311,925;  296,600;  321,450
290,922;  306,925;  307,600;  294,450
291,009;  315,925;  310,600;  283,450
291,097;  312,925;  305,600;  282,450
291,184;  317,925;  319,600;  313,450
291,272;  288,925;  297,600;  264,450
291,359;  251,925;  283,600;  283,450
291,447;  304,925;  294,600;  309,450
291,534;  312,925;  310,600;  315,450
291,621;  321,925;  261,600;  308,450
291,709;  280,925;  284,600;  270,450
291,796;  292,925;  313,600;  323,450
291,884;  296,925;  310,600;  308,450
291,971;  330,925;  306,600;  287,450
292,058;  307,925;  250,600;  294,450
292,146;  310,925;  293,600;  279,450
292,233;  276,925;  284,600;  243,450
292,320;  286,925;  294,600;  284,450
292,408;  313,925;  316,600;  297,450
292,495;  306,925;  302,600;  281,450
292,582;  273,925;  276,600;  273,450
292,669;  302,925;  273,600;  285,450
292,757;  249,925;  292,600;  288,450
292,844;  293,925;  305,600;  312,450
292,931;  249,925;  272,600;  266,450
293,018;  267,925;  267,600;  264,450
293,106;  315,925;  290,600;  324,450
293,193;  263,925;  265,600;  280,450
293,280;  295,925;  304,600;  310,450
293,367;  289,925;  279,600;  295,450
293,455;  300,925;  253,600;  248,450
293,542;  266,925;  264,600;  268,450
293,629;  296,925;  264,600;  272,450
293,716;  312,925;  341,600;  307,450
293,803;  249,925;  273,600;  279,450
293,890;  298,925;  284,600;  298,450
293,978;  267,925;  277,600;  266,450
294,065;  218,925;  293,600;  268,450
294,152;  282,925;  276,600;  315,450
294,239;  245,925;  294,600;  269,450
294,326;  283,925;  307,600;  277,450
294,413;  250,925;  280,600;  253,450
294,500;  259,925;  304,600;  286,450
294,587;  275,925;  291,600;  255,450
294,674;  287,925;  280,600;  314,450
294,761;  252,925;  283,600;  266,450
294,848;  279,925;  275,600;  288,450
294,935;  294,925;  281,600;  279,450
295,022;  238,925;  269,600;  243,450
295,109;  254,925;  259,600;  253,450
295,196;  288,925;  297,600;  309,450
295,283;  266,925;  295,600;  256,450
295,370;  295,925;  318,600;  307,450
295,457;  313,925;  266,600;  285,450
295,544;  305,925;  277,600;  264,450
295,631;  288,925;  282,600;  272,450
295,718;  299,925;  279,600;  248,450
295,805;  282,925;  298,600;  281,450
295,892;  299,925;  314,600;  274,450
295,979;  279,925;  294,600;  284,450
296,066;  304,925;  306,600;  278,450
296,153;  290,925;  313,600;  324,450
296,240;  325,925;  312,600;  282,450
296,327;  292,925;  286,600;  257,450
296,413;  306,925;  316,600;  272,450
296,500;  344,925;  330,600;  261,450
296,587;  517,925;  534,600;  268,450
296,674; 1707,925; 1749,600;  263,450
296,761;  804,925;  786,600;  252,450
296,848;  297,925;  299,600;  274,450
296,934;  278,925;  296,600;  274,450
297,021;  293,925;  286,600;  266,450
297,108;  278,925;  310,600;  269,450
297,195;  280,925;  276,600;  268,450
297,282;  285,925;  295,600;  273,450
297,368;  277,925;  297,600;  347,450
297,455;  299,925;  284,600;  259,450
297,542;  335,925;  330,600;  316,450
297,629;  298,925;  315,600;  290,450
297,715;  287,925;  309,600;  306,450
297,802;  287,925;  286,600;  273,450
297,889;  292,925;  307,600;  319,450
297,975;  326,925;  326,600;  320,450
298,062;  277,925;  325,600;  301,450
298,149;  266,925;  300,600;  269,450
298,235;  308,925;  286,600;  308,450
298,322;  276,925;  287,600;  291,450
298,409;  273,925;  340,600;  304,450
298,495;  269,925;  282,600;  250,450
298,582;  317,925;  303,600;  304,450
298,669;  264,925;  290,600;  290,450
298,755;  308,925;  295,600;  281,450
298,842;  285,925;  315,600;  314,450
298,928;  269,925;  298,600;  281,450
299,015;  271,925;  287,600;  296,450
299,102;  306,925;  306,600;  309,450
299,188;  308,925;  307,600;  292,450
299,275;  315,925;  313,600;  289,450
299,361;  259,925;  274,600;  256,450
299,448;  330,925;  283,600;  278,450
299,534;  291,925;  328,600;  282,450
299,621;  284,925;  323,600;  302,450
299,707;  264,925;  298,600;  298,450
299,794;  294,925;  318,600;  322,450
299,880;  321,925;  301,600;  313,450
299,967;  302,925;  285,600;  251,450
300,053;  310,925;  301,600;  301,450
300,140;  318,925;  314,600;  315,450
300,226;  305,925;  320,600;  297,450
300,312;  315,925;  310,600;  306,450
300,399;  325,925;  290,600;  309,450
300,485;  289,925;  310,600;  268,450
300,572;  281,925;  272,600;  257,450
300,658;  273,925;  299,600;  272,450
300,744;  312,925;  310,600;  301,450
300,831;  289,925;  302,600;  292,450
300,917;  315,925;  298,600;  310,450
301,004;  295,925;  299,600;  288,450
301,090;  297,925;  279,600;  254,450
301,176;  292,925;  284,600;  254,450
301,263;  313,925;  322,600;  282,450
301,349;  286,925;  294,600;  273,450
301,435;  276,925;  267,600;  268,450
301,521;  263,925;  323,600;  301,450
301,608;  266,925;  311,600;  319,450
301,694;  305,925;  304,600;  283,450
301,780;  285,925;  296,600;  288,450
301,867;  230,925;  281,600;  274,450
301,953;  280,925;  289,600;  304,450
302,039;  379,925;  409,600;  273,450
302,125;  547,925;  539,600;  281,450
302,211;  353,925;  349,600;  300,450
302,298;  359,925;  374,600;  261,450
302,384;  296,925;  296,600;  238,450
302,470;  282,925;  280,600;  280,450
302,556;  320,925;  331,600;  294,450
302,642;  301,925;  286,600;  226,450
302,729;  256,925;  300,600;  270,450
302,815;  322,925;  299,600;  269,450
302,901;  307,925;  267,600;  294,450
302,987;  288,925;  299,600;  293,450
303,073;  307,925;  284,600;  283,450
303,159;  310,925;  295,600;  305,450
303,245;  283,925;  279,600;  256,450
303,331;  276,925;  281,600;  277,450
303,417;  270,925;  283,600;  328,450
303,503;  292,925;  331,600;  293,450
303,590;  285,925;  289,600;  272,450
303,676;  342,925;  289,600;  302,450
303,762;  280,925;  288,600;  270,450
303,848;  293,925;  295,600;  316,450
303,934;  278,925;  323,600;  286,450
304,020;  281,925;  304,600;  288,450
304,106;  281,925;  318,600;  287,450
304,192;  292,925;  265,600;  275,450
304,278;  323,925;  297,600;  304,450
304,364;  323,925;  327,600;  303,450
304,450;  311,925;  283,600;  288,450
304,535;  325,925;  304,600;  295,450
304,621;  302,925;  302,600;  309,450
304,707;  322,925;  294,600;  296,450
304,793;  314,925;  323,600;  295,450
304,879;  292,925;  305,600;  292,450
304,965;  305,925;  297,600;  273,450
305,051;  305,925;  310,600;  260,450
305,137;  323,925;  266,600;  314,450
305,223;  295,925;  299,600;  301,450
305,309;  316,925;  306,600;  306,450
305,394;  303,925;  266,600;  282,450
305,480;  285,925;  298,600;  266,450
305,566;  276,925;  280,600;  297,450
305,652;  332,925;  297,600;  308,450
305,738;  332,925;  332,600;  315,450
305,824;  308,925;  280,600;  303,450
305,909;  325,925;  338,600;  301,450
305,995;  264,925;  267,600;  268,450
306,081;  330,925;  368,600;  334,450
306,167;  290,925;  287,600;  311,450
306,252;  330,925;  319,600;  311,450
306,338;  323,925;  332,600;  332,450
306,424;  298,925;  315,600;  260,450
306,510;  289,925;  355,600;  305,450
306,595;  313,925;  303,600;  335,450
306,681;  311,925;  321,600;  287,450
306,767;  290,925;  313,600;  286,450
306,852;  363,925;  337,600;  314,450
306,938;  315,925;  291,600;  336,450
307,024;  295,925;  281,600;  321,450
307,109;  346,925;  340,600;  327,450
307,195;  301,925;  318,600;  337,450
307,281;  312,925;  322,600;  315,450
307,366;  290,925;  319,600;  284,450
307,452;  316,925;  292,600;  312,450
307,537;  275,925;  289,600;  281,450
307,623;  297,925;  272,600;  282,450
307,709;  344,925;  302,600;  325,450
307,794;  277,925;  293,600;  258,450
307,880;  332,925;  321,600;  320,450
307,965;  322,925;  278,600;  274,450
308,051;  279,925;  263,600;  305,450
308,136;  294,925;  314,600;  260,450
308,222;  293,925;  306,600;  301,450
308,307;  276,925;  286,600;  312,450
308,393;  291,925;  294,600;  285,450
308,478;  342,925;  321,600;  308,450
308,564;  289,925;  280,600;  276,450
308,649;  275,925;  308,600;  304,450
308,735;  290,925;  320,600;  278,450
308,820;  272,925;  328,600;  304,450
308,906;  261,925;  298,600;  272,450
308,991;  325,925;  339,600;  314,450
309,076;  314,925;  335,600;  290,450
309,162;  275,925;  265,600;  245,450
309,247;  316,925;  297,600;  288,450
309,333;  269,925;  284,600;  286,450
309,418;  275,925;  281,600;  297,450
309,503;  295,925;  301,600;  289,450
309,589;  276,925;  308,600;  306,450
309,674;  282,925;  274,600;  268,450
309,759;  305,925;  291,600;  289,450
309,845;  306,925;  290,600;  312,450
309,930;  310,925;  292,600;  288,450
310,015;  302,925;  257,600;  251,450
310,101;  319,925;  282,600;  296,450
310,186;  303,925;  267,600;  298,450
310,271;  301,925;  298,600;  286,450
310,357;  303,925;  265,600;  286,450
310,442;  273,925;  288,600;  263,450
310,527;  296,925;  288,600;  306,450
310,612;  280,925;  291,600;  253,450
310,698;  285,925;  282,600;  275,450
310,783;  314,925;  288,600;  279,450
310,868;  311,925;  313,600;  263,450
310,953;  286,925;  269,600;  293,450
311,038;  290,925;  289,600;  286,450
311,124;  285,925;  296,600;  277,450
311,209;  267,925;  293,600;  291,450
311,294;  324,925;  306,600;  303,450
311,379;  271,925;  254,600;  258,450
311,464;  293,925;  302,600;  291,450
311,549;  281,925;  277,600;  294,450
311,634;  262,925;  284,600;  275,450
311,719;  310,925;  308,600;  309,450
311,805;  288,925;  308,600;  275,450
311,890;  315,925;  308,600;  261,450
311,975;  313,925;  262,600;  283,450
312,060;  301,925;  321,600;  289,450
312,145;  263,925;  277,600;  262,450
312,230;  296,925;  313,600;  285,450
312,315;  294,925;  325,600;  262,450
312,400;  397,925;  404,600;  303,450
312,485; 1747,925; 1668,600;  292,450
312,570; 1196,925; 1232,600;  239,450
312,655;  326,925;  342,600;  282,450
312,740;  315,925;  312,600;  289,450
312,825;  339,925;  329,600;  301,450
312,910;  340,925;  343,600;  278,450
312,995;  418,925;  443,600;  325,450
313,080; 2125,925; 2082,600;  265,450
313,165; 2126,925; 2149,600;  310,450
313,250;  354,925;  308,600;  276,450
313,335;  310,925;  321,600;  307,450
313,419;  293,925;  269,600;  242,450
313,504;  313,925;  304,600;  286,450
313,589;  319,925;  272,600;  277,450
313,674;  305,925;  303,600;  290,450
313,759;  281,925;  274,600;  273,450
313,844;  311,925;  276,600;  289,450
313,929;  293,925;  295,600;  285,450
314,014;  340,925;  307,600;  320,450
314,098;  293,925;  321,600;  305,450
314,183;  255,925;  258,600;  260,450
314,268;  294,925;  295,600;  290,450
314,353;  299,925;  287,600;  290,450
314,438;  302,925;  287,600;  294,450
314,522;  307,925;  272,600;  306,450
314,607;  336,925;  282,600;  302,450
314,692;  295,925;  291,600;  301,450
314,777;  294,925;  291,600;  279,450
314,861;  249,925;  293,600;  263,450
314,946;  334,925;  321,600;  303,450
315,031;  266,925;  284,600;  267,450
315,115;  280,925;  309,600;  318,450
315,200;  303,925;  301,600;  285,450
315,285;  271,925;  278,600;  275,450
315,369;  275,925;  282,600;  273,450
315,454;  325,925;  291,600;  305,450
315,539;  288,925;  280,600;  283,450
315,623;  324,925;  308,600;  292,450
315,708;  336,925;  326,600;  315,450
315,793;  284,925;  318,600;  308,450
315,877;  325,925;  311,600;  282,450
315,962;  266,925;  263,600;  283,450
316,046;  318,925;  327,600;  298,450
316,131;  334,925;  334,600;  313,450
316,216;  290,925;  308,600;  288,450
316,300;  301,925;  307,600;  281,450
316,385;  325,925;  301,600;  319,450
316,469;  327,925;  335,600;  331,450
316,554;  289,925;  290,600;  288,450
316,638;  289,925;  297,600;  286,450
316,723;  293,925;  285,600;  262,450
316,807;  293,925;  268,600;  273,450
316,892;  288,925;  293,600;  275,450
316,976;  289,925;  298,600;  318,450
317,061;  349,925;  282,600;  309,450
317,145;  321,925;  316,600;  315,450
317,230;  311,925;  309,600;  304,450
317,314;  274,925;  264,600;  259,450
317,398;  299,925;  280,600;  323,450
317,483;  283,925;  312,600;  266,450
317,567;  317,925;  299,600;  317,450
317,652;  288,925;  280,600;  244,450
317,736;  297,925;  277,600;  329,450
317,820;  366,925;  343,600;  287,450
317,905;  298,925;  311,600;  289,450
317,989;  315,925;  303,600;  312,450
318,073;  304,925;  281,600;  280,450
318,158;  259,925;  262,600;  284,450
318,242;  275,925;  297,600;  269,450
318,326;  261,925;  265,600;  260,450
318,411;  304,925;  263,600;  290,450
318,495;  296,925;  274,600;  286,450
318,579;  282,925;  264,600;  266,450
318,664;  292,925;  284,600;  242,450
318,748;  293,925;  290,600;  266,450
318,832;  308,925;  261,600;  263,450
318,916;  268,925;  272,600;  263,450
319,001;  293,925;  287,600;  299,450
319,085;  302,925;  265,600;  265,450
319,169;  279,925;  304,600;  285,450
319,253;  266,925;  270,600;  271,450
319,337;  304,925;  311,600;  265,450
319,422;  311,925;  329,600;  325,450
319,506;  303,925;  282,600;  264,450
319,590;  310,925;  303,600;  320,450
319,674;  295,925;  326,600;  301,450
319,758;  286,925;  277,600;  278,450
319,842;  294,925;  280,600;  290,450
319,926;  314,925;  268,600;  280,450
320,010;  269,925;  267,600;  226,450
320,095;  292,925;  284,600;  274,450
320,179;  257,925;  270,600;  263,450
320,263;  279,925;  259,600;  265,450
320,347;  243,925;  217,600;  260,450
320,431;  275,925;  267,600;  245,450
320,515;  300,925;  297,600;  267,450
320,599;  261,925;  274,600;  263,450
320,683;  282,925;  295,600;  306,450
320,767;  256,925;  246,600;  230,450
320,851;  292,925;  247,600;  282,450
320,935;  302,925;  294,600;  317,450
321,019;  299,925;  258,600;  297,450
321,103;  299,925;  319,600;  295,450
321,187;  270,925;  272,600;  303,450
321,271;  280,925;  299,600;  251,450
321,355;  277,925;  290,600;  264,450
321,439;  298,925;  282,600;  306,450
321,523;  276,925;  285,600;  287,450
321,606;  301,925;  289,600;  301,450
321,690;  276,925;  285,600;  261,450
321,774;  281,925;  284,600;  286,450
321,858;  299,925;  300,600;  283,450
321,942;  290,925;  298,600;  291,450
322,026;  295,925;  296,600;  280,450
322,110;  294,925;  286,600;  264,450
322,194;  287,925;  279,600;  293,450
322,277;  266,925;  287,600;  257,450
322,361;  275,925;  260,600;  265,450
322,445;  282,925;  285,600;  252,450
322,529;  285,925;  298,600;  264,450
322,613;  256,925;  273,600;  262,450
322,696;  253,925;  287,600;  266,450
322,780;  256,925;  303,600;  256,450
322,864;  271,925;  310,600;  288,450
322,948;  311,925;  262,600;  270,450
323,031;  292,925;  268,600;  269,450
323,115;  299,925;  299,600;  257,450
323,199;  310,925;  291,600;  268,450
323,282;  324,925;  284,600;  302,450
323,366;  276,925;  280,600;  307,450
323,450;  256,925;  241,600;  266,450
323,533;  326,925;  309,600;  308,450
323,617;  257,925;  243,600;  238,450
323,701;  294,925;  239,600;  257,450
323,784;  302,925;  305,600;  289,450
323,868;  290,925;  302,600;  285,450
323,952;  301,925;  276,600;  272,450
324,035;  297,925;  295,600;  297,450
324,119;  317,925;  285,600;  262,450
324,202;  273,925;  280,600;  298,450
324,286;  281,925;  236,600;  286,450
324,370;  279,925;  291,600;  274,450
324,453;  295,925;  287,600;  296,450
324,537;  279,925;  280,600;  281,450
324,620;  269,925;  295,600;  303,450
324,704;  275,925;  281,600;  261,450
324,787;  298,925;  295,600;  267,450
324,871;  288,925;  293,600;  314,450
324,954;  332,925;  299,600;  318,450
325,038;  305,925;  299,600;  301,450
325,121;  316,925;  302,600;  316,450
325,205;  299,925;  273,600;  277,450
325,288;  314,925;  280,600;  269,450
325,371;  290,925;  275,600;  285,450
325,455;  293,925;  289,600;  302,450
325,538;  246,925;  292,600;  308,450
325,622;  300,925;  302,600;  306,450
325,705;  263,925;  303,600;  300,450
325,788;  279,925;  297,600;  298,450
325,872;  287,925;  264,600;  279,450
325,955;  291,925;  305,600;  300,450
326,039;  300,925;  290,600;  313,450
326,122;  316,925;  277,600;  288,450
326,205;  326,925;  320,600;  299,450
326,289;  330,925;  313,600;  313,450
326,372;  298,925;  310,600;  288,450
326,455;  342,925;  322,600;  318,450
326,538;  320,925;  312,600;  306,450
326,622;  301,925;  285,600;  313,450
326,705;  265,925;  272,600;  290,450
326,788;  299,925;  288,600;  324,450
326,871;  299,925;  286,600;  281,450
326,955;  300,925;  293,600;  333,450
327,038;  295,925;  304,600;  284,450
327,121;  323,925;  313,600;  303,450
327,204;  314,925;  315,600;  298,450
327,288;  334,925;  326,600;  328,450
327,371;  308,925;  286,600;  294,450
327,454;  358,925;  303,600;  316,450
327,537;  302,925;  272,600;  285,450
327,620;  297,925;  327,600;  309,450
327,703;  335,925;  308,600;  314,450
327,786;  316,925;  320,600;  319,450
327,870;  287,925;  321,600;  308,450
327,953;  303,925;  307,600;  296,450
328,036;  333,925;  291,600;  264,450
328,119;  330,925;  345,600;  299,450
328,202;  306,925;  305,600;  287,450
328,285;  328,925;  336,600;  306,450
328,368;  326,925;  335,600;  328,450
328,451;  307,925;  325,600;  334,450
328,534;  271,925;  292,600;  283,450
328,617;  311,925;  290,600;  281,450
328,700;  326,925;  325,600;  327,450
328,783;  345,925;  319,600;  292,450
328,866;  324,925;  294,600;  287,450
328,949;  320,925;  341,600;  325,450
329,032;  314,925;  292,600;  308,450
329,115;  285,925;  288,600;  279,450
329,198;  275,925;  265,600;  282,450
329,281;  296,925;  310,600;  277,450
329,364;  324,925;  300,600;  330,450
329,447;  285,925;  303,600;  300,450
329,530;  325,925;  321,600;  317,450
329,613;  282,925;  302,600;  289,450
329,696;  310,925;  308,600;  298,450
329,778;  332,925;  313,600;  293,450
329,861;  321,925;  309,600;  288,450
329,944;  309,925;  326,600;  272,450
330,027;  329,925;  312,600;  296,450
330,110;  289,925;  305,600;  313,450
330,193;  260,925;  284,600;  300,450
330,275;  297,925;  290,600;  298,450
330,358;  279,925;  278,600;  298,450
330,441;  317,925;  307,600;  326,450
330,524;  309,925;  322,600;  298,450
330,607;  278,925;  281,600;  304,450
330,689;  319,925;  278,600;  321,450
330,772;  290,925;  290,600;  305,450
330,855;  319,925;  329,600;  287,450
330,938;  341,925;  332,600;  319,450
331,020;  343,925;  298,600;  292,450
331,103;  294,925;  280,600;  310,450
331,186;  309,925;  298,600;  286,450
331,268;  298,925;  280,600;  269,450
331,351;  337,925;  285,600;  311,450
331,434;  298,925;  296,600;  316,450
331,516;  319,925;  313,600;  329,450
331,599;  309,925;  266,600;  255,450
331,682;  323,925;  301,600;  302,450
331,764;  315,925;  308,600;  261,450
331,847;  349,925;  311,600;  310,450
331,929;  300,925;  286,600;  278,450
332,012;  301,925;  296,600;  295,450
332,095;  328,925;  348,600;  317,450
332,177;  322,925;  353,600;  324,450
332,260;  321,925;  349,600;  345,450
332,342;  312,925;  310,600;  291,450
332,425;  317,925;  301,600;  293,450
332,507;  278,925;  239,600;  316,450
332,590;  283,925;  274,600;  280,450
332,672;  285,925;  310,600;  264,450
332,755;  266,925;  320,600;  233,450
332,837;  329,925;  286,600;  274,450
332,920;  309,925;  315,600;  298,450
333,002;  328,925;  308,600;  306,450
333,085;  309,925;  308,600;  298,450
333,167;  295,925;  275,600;  266,450
333,249;  295,925;  276,600;  277,450
333,332;  293,925;  275,600;  279,450
333,414;  304,925;  317,600;  295,450
333,497;  301,925;  315,600;  305,450
333,579;  300,925;  303,600;  307,450
333,661;  308,925;  319,600;  286,450
333,744;  299,925;  265,600;  243,450
333,826;  310,925;  302,600;  293,450
333,908;  349,925;  329,600;  332,450
333,991;  298,925;  253,600;  285,450
334,073;  480,925;  503,600;  321,450
334,155;  352,925;  360,600;  289,450
334,238;  319,925;  314,600;  286,450
334,320;  311,925;  296,600;  270,450
334,402;  323,925;  298,600;  292,450
334,485;  324,925;  305,600;  282,450
334,567;  324,925;  301,600;  262,450
334,649;  290,925;  266,600;  273,450
334,731;  300,925;  287,600;  285,450
334,813;  302,925;  346,600;  352,450
334,896;  272,925;  296,600;  287,450
334,978;  310,925;  302,600;  283,450
335,060;  287,925;  306,600;  296,450
335,142;  272,925;  265,600;  306,450
335,224;  303,925;  308,600;  310,450
335,307;  302,925;  277,600;  275,450
335,389;  293,925;  302,600;  315,450
335,471;  260,925;  300,600;  282,450
335,553;  298,925;  308,600;  317,450
335,635;  314,925;  303,600;  277,450
335,717;  321,925;  280,600;  305,450
335,799;  305,925;  314,600;  325,450
335,881;  270,925;  271,600;  251,450
335,963;  253,925;  283,600;  278,450
336,045;  309,925;  281,600;  276,450
336,128;  263,925;  281,600;  268,450
336,210;  315,925;  284,600;  250,450
336,292;  287,925;  301,600;  283,450
336,374;  287,925;  307,600;  287,450
336,456;  289,925;  290,600;  258,450
336,538;  304,925;  288,600;  304,450
336,620;  326,925;  325,600;  305,450
336,702;  262,925;  308,600;  309,450
336,783;  322,925;  299,600;  289,450
336,865;  333,925;  302,600;  303,450
336,947;  300,925;  299,600;  302,450
337,029;  285,925;  252,600;  262,450
337,111;  305,925;  309,600;  328,450
337,193;  253,925;  257,600;  250,450
337,275;  287,925;  302,600;  291,450
337,357;  324,925;  299,600;  305,450
337,439;  311,925;  299,600;  277,450
337,521;  273,925;  274,600;  268,450
337,602;  307,925;  280,600;  295,450
337,684;  292,925;  302,600;  341,450
337,766;  320,925;  301,600;  288,450
337,848;  276,925;  309,600;  318,450
337,930;  317,925;  300,600;  300,450
338,012;  318,925;  257,600;  295,450
338,093;  310,925;  302,600;  312,450
338,175;  324,925;  308,600;  308,450
338,257;  278,925;  296,600;  243,450
338,339;  319,925;  303,600;  248,450
338,420;  305,925;  304,600;  329,450
338,502;  307,925;  292,600;  292,450
338,584;  262,925;  261,600;  270,450
338,666;  291,925;  293,600;  301,450
338,747;  322,925;  337,600;  324,450
338,829;  303,925;  301,600;  300,450
338,911;  280,925;  281,600;  284,450
338,992;  285,925;  292,600;  299,450
339,074;  282,925;  300,600;  274,450
339,156;  305,925;  308,600;  302,450
339,237;  330,925;  344,600;  320,450
339,319;  290,925;  298,600;  284,450
339,400;  303,925;  301,600;  313,450
339,482;  279,925;  291,600;  259,450
339,564;  297,925;  337,600;  315,450
339,645;  295,925;  283,600;  306,450
339,727;  281,925;  284,600;  278,450
339,808;  322,925;  306,600;  320,450
339,890;  294,925;  285,600;  277,450
339,971;  321,925;  318,600;  299,450
340,053;  336,925;  327,600;  339,450
340,134;  293,925;  287,600;  283,450
340,216;  329,925;  294,600;  302,450
340,297;  313,925;  330,600;  312,450
340,379;  325,925;  344,600;  301,450
340,460;  302,925;  275,600;  299,450
340,542;  309,925;  307,600;  263,450
340,623;  289,925;  306,600;  325,450
340,705;  267,925;  306,600;  262,450
340,786;  271,925;  299,600;  288,450
340,868;  297,925;  299,600;  313,450
340,949;  301,925;  279,600;  269,450
341,030;  311,925;  330,600;  312,450
341,112;  248,925;  256,600;  269,450
341,193;  266,925;  287,600;  248,450
341,274;  329,925;  325,600;  312,450
341,356;  339,925;  329,600;  300,450
341,437;  288,925;  292,600;  284,450
341,518;  306,925;  313,600;  322,450
341,600;  307,925;  321,600;  324,450
341,681;  329,925;  316,600;  308,450
341,762;  312,925;  316,600;  314,450
341,844;  290,925;  271,600;  280,450
341,925;  295,925;  304,600;  329,450
342,006;  320,925;  314,600;  322,450
342,087;  289,925;  291,600;  308,450
342,169;  272,925;  301,600;  297,450
342,250;  275,925;  303,600;  250,450
342,331;  276,925;  291,600;  268,450
342,412;  284,925;  304,600;  283,450
342,493;  297,925;  279,600;  266,450
342,575;  330,925;  298,600;  308,450
342,656;  328,925;  343,600;  319,450
342,737;  346,925;  331,600;  316,450
342,818;  292,925;  319,600;  291,450
342,899;  329,925;  309,600;  295,450
342,980;  295,925;  306,600;  302,450
343,061;  282,925;  297,600;  279,450
343,143;  319,925;  299,600;  310,450
343,224;  306,925;  297,600;  287,450
343,305;  311,925;  294,600;  273,450
343,386;  288,925;  290,600;  295,450
343,467;  301,925;  306,600;  295,450
343,548;  270,925;  307,600;  271,450
343,629;  317,925;  348,600;  311,450
343,710;  318,925;  354,600;  330,450
343,791;  324,925;  296,600;  295,450
343,872;  307,925;  314,600;  271,450
343,953;  315,925;  323,600;  303,450
344,034;  323,925;  307,600;  307,450
344,115;  309,925;  298,600;  295,450
344,196;  292,925;  295,600;  273,450
344,277;  290,925;  282,600;  299,450
344,358;  306,925;  279,600;  295,450
344,439;  312,925;  281,600;  287,450
344,520;  303,925;  310,600;  269,450
344,601;  322,925;  319,600;  332,450
344,681;  277,925;  312,600;  315,450
344,762;  285,925;  275,600;  257,450
344,843;  266,925;  300,600;  255,450
344,924;  310,925;  252,600;  290,450
345,005;  281,925;  269,600;  286,450
345,086;  313,925;  301,600;  289,450
345,167;  319,925;  299,600;  282,450
345,247;  299,925;  305,600;  327,450
345,328;  301,925;  287,600;  317,450
345,409;  289,925;  280,600;  307,450
345,490;  331,925;  314,600;  310,450
345,571;  286,925;  293,600;  295,450
345,651;  250,925;  260,600;  335,450
345,732;  293,925;  303,600;  286,450
345,813;  319,925;  285,600;  291,450
345,894;  278,925;  254,600;  279,450
345,974;  283,925;  346,600;  305,450
346,055;  285,925;  275,600;  291,450
346,136;  287,925;  311,600;  287,450
346,216;  336,925;  312,600;  345,450
346,297;  289,925;  294,600;  289,450
346,378;  276,925;  270,600;  300,450
346,458;  313,925;  299,600;  271,450
346,539;  306,925;  295,600;  315,450
346,620;  324,925;  301,600;  312,450
346,700;  271,925;  302,600;  258,450
346,781;  288,925;  252,600;  260,450
346,861;  287,925;  283,600;  301,450
346,942;  289,925;  273,600;  319,450
347,023;  318,925;  302,600;  306,450
347,103;  268,925;  296,600;  287,450
347,184;  298,925;  321,600;  294,450
347,264;  276,925;  289,600;  310,450
347,345;  287,925;  280,600;  281,450
347,425;  287,925;  270,600;  295,450
347,506;  294,925;  283,600;  283,450
347,586;  281,925;  258,600;  283,450
347,667;  284,925;  316,600;  299,450
347,747;  318,925;  307,600;  304,450
347,828;  286,925;  308,600;  271,450
347,908;  321,925;  307,600;  307,450
347,988;  275,925;  296,600;  251,450
348,069;  336,925;  295,600;  305,450
348,149;  291,925;  303,600;  276,450
348,230;  309,925;  297,600;  301,450
348,310;  299,925;  291,600;  301,450
348,390;  264,925;  285,600;  267,450
348,471;  326,925;  299,600;  270,450
348,551;  262,925;  289,600;  264,450
348,632;  307,925;  288,600;  278,450
348,712;  290,925;  281,600;  278,450
348,792;  314,925;  352,600;  333,450
348,873;  259,925;  293,600;  249,450
348,953;  303,925;  278,600;  330,450
349,033;  290,925;  285,600;  311,450
349,113;  303,925;  278,600;  277,450
349,194;  305,925;  289,600;  310,450
349,274;  298,925;  300,600;  310,450
349,354;  298,925;  288,600;  285,450
349,434;  303,925;  300,600;  299,450
349,515;  344,925;  310,600;  320,450
349,595;  307,925;  308,600;  287,450
349,675;  305,925;  289,600;  299,450
349,755;  301,925;  325,600;  280,450
349,835;  314,925;  305,600;  309,450
349,916;  266,925;  298,600;  284,450
349,996;  278,925;  287,600;  253,450
350,076;  335,925;  286,600;  315,450
350,156;  299,925;  272,600;  280,450
350,236;  311,925;  292,600;  316,450
350,316;  301,925;  296,600;  282,450
350,396;  327,925;  283,600;  306,450
350,476;  288,925;  308,600;  275,450
350,556;  284,925;  275,600;  290,450
350,637;  296,925;  331,600;  312,450
350,717;  289,925;  269,600;  287,450
350,797;  324,925;  307,600;  305,450
350,877;  284,925;  305,600;  323,450
350,957;  306,925;  285,600;  291,450
351,037;  304,925;  303,600;  298,450
351,117;  273,925;  304,600;  275,450
351,197;  302,925;  331,600;  302,450
351,277;  298,925;  328,600;  277,450
351,357;  305,925;  322,600;  293,450
351,437;  310,925;  299,600;  283,450
351,516;  305,925;  337,600;  283,450
351,596;  289,925;  291,600;  329,450
351,676;  291,925;  269,600;  284,450
351,756;  291,925;  308,600;  326,450
351,836;  325,925;  285,600;  329,450
351,916;  309,925;  324,600;  287,450
351,996;  293,925;  313,600;  318,450
352,076;  294,925;  288,600;  302,450
352,156;  308,925;  317,600;  297,450
352,235;  315,925;  310,600;  304,450
352,315;  305,925;  313,600;  339,450
352,395;  323,925;  306,600;  277,450
352,475;  309,925;  339,600;  287,450
352,555;  308,925;  362,600;  344,450
352,634;  276,925;  304,600;  344,450
352,714;  299,925;  310,600;  263,450
352,794;  332,925;  334,600;  364,450
352,874;  329,925;  335,600;  339,450
352,953;  360,925;  336,600;  318,450
353,033;  286,925;  317,600;  344,450
353,113;  320,925;  360,600;  341,450
353,193;  292,925;  314,600;  334,450
353,272;  323,925;  295,600;  329,450
353,352;  328,925;  303,600;  275,450
353,432;  317,925;  324,600;  344,450
353,511;  298,925;  323,600;  302,450
353,591;  372,925;  352,600;  347,450
353,671;  306,925;  335,600;  320,450
353,750;  302,925;  311,600;  311,450
353,830;  299,925;  319,600;  296,450
353,909;  333,925;  335,600;  341,450
353,989;  286,925;  309,600;  297,450
354,069;  303,925;  315,600;  318,450
354,148;  307,925;  341,600;  323,450
354,228;  314,925;  315,600;  300,450
354,307;  345,925;  313,600;  312,450
354,387;  331,925;  316,600;  326,450
354,466;  286,925;  319,600;  299,450
354,546;  356,925;  314,600;  347,450
354,625;  289,925;  341,600;  324,450
354,705;  299,925;  272,600;  330,450
354,784;  302,925;  301,600;  303,450
354,864;  309,925;  309,600;  305,450
354,943;  340,925;  340,600;  339,450
355,023;  325,925;  288,600;  314,450
355,102;  356,925;  337,600;  333,450
355,181;  329,925;  328,600;  329,450
355,261;  333,925;  314,600;  344,450
355,340;  284,925;  301,600;  307,450
355,420;  343,925;  325,600;  327,450
355,499;  352,925;  294,600;  326,450
355,578;  291,925;  321,600;  324,450
355,658;  291,925;  310,600;  346,450
355,737;  324,925;  312,600;  309,450
355,816;  356,925;  330,600;  333,450
355,896;  322,925;  300,600;  301,450
355,975;  328,925;  308,600;  294,450
356,054;  334,925;  316,600;  285,450
356,133;  280,925;  287,600;  314,450
356,213;  324,925;  318,600;  292,450
356,292;  309,925;  297,600;  276,450
356,371;  346,925;  331,600;  297,450
356,451;  313,925;  345,600;  294,450
356,530;  346,925;  357,600;  319,450
356,609;  288,925;  306,600;  286,450
356,688;  259,925;  314,600;  298,450
356,767;  287,925;  299,600;  290,450
356,846;  333,925;  346,600;  295,450
356,926;  325,925;  342,600;  361,450
357,005;  300,925;  332,600;  321,450
357,084;  288,925;  318,600;  321,450
357,163;  322,925;  335,600;  341,450
357,242;  345,925;  286,600;  337,450
357,321;  299,925;  322,600;  296,450
357,400;  340,925;  305,600;  310,450
357,479;  312,925;  336,600;  292,450
357,559;  323,925;  325,600;  314,450
357,638;  321,925;  312,600;  292,450
357,717;  312,925;  322,600;  304,450
357,796;  350,925;  348,600;  323,450
357,875;  322,925;  333,600;  316,450
357,954;  328,925;  312,600;  285,450
358,033;  259,925;  311,600;  278,450
358,112;  322,925;  302,600;  300,450
358,191;  301,925;  313,600;  289,450
358,270;  311,925;  266,600;  300,450
358,349;  318,925;  291,600;  324,450
358,428;  330,925;  321,600;  335,450
358,507;  301,925;  348,600;  306,450
358,585;  289,925;  318,600;  326,450
358,664;  306,925;  318,600;  340,450
358,743;  355,925;  293,600;  304,450
358,822;  341,925;  354,600;  329,450
358,901;  291,925;  275,600;  303,450
358,980;  309,925;  308,600;  299,450
359,059;  323,925;  326,600;  326,450
359,138;  326,925;  308,600;  324,450
359,216;  361,925;  320,600;  314,450
359,295;  316,925;  325,600;  329,450
359,374;  325,925;  335,600;  301,450
359,453;  304,925;  340,600;  315,450
359,532;  277,925;  307,600;  310,450
359,610;  323,925;  315,600;  307,450
359,689;  340,925;  324,600;  330,450
359,768;  297,925;  305,600;  294,450
359,847;  288,925;  313,600;  287,450
359,925;  313,925;  303,600;  315,450
360,004;  320,925;  295,600;  289,450
360,083;  300,925;  299,600;  319,450
360,161;  303,925;  314,600;  285,450
360,240;  270,925;  272,600;  289,450
360,319;  311,925;  323,600;  309,450
360,397;  336,925;  313,600;  320,450
360,476;  294,925;  291,600;  325,450
360,555;  340,925;  334,600;  340,450
360,633;  285,925;  287,600;  300,450
360,712;  286,925;  299,600;  264,450
360,790;  334,925;  314,600;  320,450
360,869;  317,925;  297,600;  296,450
360,948;  320,925;  278,600;  334,450
361,026;  311,925;  321,600;  276,450
361,105;  339,925;  305,600;  290,450
361,183;  305,925;  294,600;  286,450
361,262;  317,925;  300,600;  280,450
361,340;  334,925;  318,600;  297,450
361,419;  304,925;  282,600;  250,450
361,497;  300,925;  300,600;  335,450
361,576;  327,925;  292,600;  315,450
361,654;  337,925;  361,600;  322,450
361,733;  305,925;  320,600;  300,450
361,811;  304,925;  320,600;  311,450
361,890;  298,925;  267,600;  289,450
361,968;  306,925;  269,600;  303,450
362,046;  315,925;  334,600;  321,450
362,125;  335,925;  353,600;  326,450
362,203;  312,925;  297,600;  287,450
362,282;  315,925;  319,600;  338,450
362,360;  309,925;  296,600;  307,450
362,438;  316,925;  310,600;  302,450
362,517;  370,925;  346,600;  347,450
362,595;  352,925;  312,600;  351,450
362,673;  334,925;  323,600;  317,450
362,752;  345,925;  349,600;  327,450
362,830;  334,925;  338,600;  349,450
362,908;  333,925;  310,600;  307,450
362,986;  294,925;  335,600;  315,450
363,065;  325,925;  313,600;  344,450
363,143;  353,925;  354,600;  367,450
363,221;  333,925;  302,600;  288,450
363,299;  289,925;  304,600;  309,450
363,378;  317,925;  297,600;  335,450
363,456;  273,925;  286,600;  316,450
363,534;  323,925;  318,600;  323,450
363,612;  331,925;  320,600;  312,450
363,690;  319,925;  319,600;  344,450
363,769;  335,925;  340,600;  345,450
363,847;  321,925;  308,600;  356,450
363,925;  318,925;  282,600;  303,450
364,003;  360,925;  343,600;  348,450
364,081;  342,925;  323,600;  338,450
364,159;  332,925;  325,600;  330,450
364,237;  357,925;  351,600;  326,450
364,315;  281,925;  306,600;  311,450
364,393;  374,925;  363,600;  340,450
364,471;  343,925;  345,600;  315,450
364,549;  370,925;  344,600;  337,450
364,627;  367,925;  339,600;  321,450
364,705;  351,925;  344,600;  299,450
364,783;  451,925;  417,600;  294,450
364,861; 1056,925; 1050,600;  311,450
364,939; 3583,925; 3619,600;  304,450
365,017;  748,925;  723,600;  298,450
365,095;  384,925;  341,600;  327,450
365,173;  372,925;  398,600;  335,450
365,251;  398,925;  356,600;  345,450
365,329;  562,925;  527,600;  344,450
365,407; 1206,925; 1155,600;  315,450
365,485;  464,925;  464,600;  377,450
365,563;  358,925;  354,600;  339,450
365,641;  333,925;  327,600;  316,450
365,719;  347,925;  361,600;  314,450
365,796;  311,925;  329,600;  309,450
365,874;  394,925;  329,600;  354,450
365,952;  305,925;  334,600;  297,450
366,030;  343,925;  311,600;  318,450
366,108;  334,925;  336,600;  325,450
366,185;  642,925;  644,600;  330,450
366,263;  855,925;  880,600;  333,450
366,341;  397,925;  362,600;  310,450
366,419;  340,925;  335,600;  319,450
366,496;  353,925;  347,600;  336,450
366,574;  311,925;  299,600;  321,450
366,652;  332,925;  381,600;  324,450
366,730;  351,925;  336,600;  375,450
366,807;  348,925;  317,600;  335,450
366,885;  323,925;  315,600;  340,450
366,963;  334,925;  305,600;  332,450
367,040;  362,925;  348,600;  348,450
367,118;  310,925;  315,600;  299,450
367,196;  346,925;  322,600;  355,450
367,273;  336,925;  331,600;  352,450
367,351;  339,925;  314,600;  320,450
367,428;  363,925;  351,600;  360,450
367,506;  337,925;  361,600;  305,450
367,584;  331,925;  352,600;  377,450
367,661;  334,925;  329,600;  332,450
367,739;  340,925;  328,600;  328,450
367,816;  316,925;  343,600;  292,450
367,894;  387,925;  368,600;  312,450
367,971;  324,925;  309,600;  328,450
368,049;  343,925;  376,600;  316,450
368,126;  334,925;  329,600;  318,450
368,204;  346,925;  333,600;  342,450
368,281;  350,925;  375,600;  360,450
368,359;  384,925;  352,600;  332,450
368,436;  330,925;  349,600;  336,450
368,514;  343,925;  344,600;  337,450
368,591;  363,925;  344,600;  347,450
368,668;  341,925;  375,600;  336,450
368,746;  378,925;  387,600;  352,450
368,823;  321,925;  338,600;  380,450
368,901;  336,925;  325,600;  328,450
368,978;  354,925;  329,600;  311,450
369,055;  349,925;  339,600;  332,450
369,133;  361,925;  371,600;  352,450
369,210;  325,925;  328,600;  366,450
369,287;  368,925;  364,600;  366,450
369,365;  365,925;  380,600;  367,450
369,442;  349,925;  347,600;  350,450
369,519;  263,925;  321,600;  298,450
369,596;  337,925;  359,600;  339,450
369,674;  340,925;  327,600;  283,450
369,751;  343,925;  337,600;  371,450
369,828;  349,925;  351,600;  337,450
369,905;  346,925;  358,600;  377,450
369,983;  321,925;  305,600;  327,450
370,060;  330,925;  323,600;  301,450
370,137;  368,925;  394,600;  401,450
370,214;  341,925;  321,600;  374,450
370,291;  363,925;  350,600;  340,450
370,368;  371,925;  356,600;  383,450
370,446;  301,925;  301,600;  350,450
370,523;  334,925;  360,600;  316,450
370,600;  333,925;  368,600;  319,450
370,677;  332,925;  348,600;  332,450
370,754;  356,925;  343,600;  331,450
370,831;  337,925;  352,600;  343,450
370,908;  375,925;  347,600;  374,450
370,985;  317,925;  333,600;  281,450
371,062;  348,925;  341,600;  344,450
371,139;  360,925;  361,600;  363,450
371,216;  331,925;  351,600;  347,450
371,293;  360,925;  329,600;  359,450
371,370;  313,925;  322,600;  314,450
371,447;  344,925;  346,600;  342,450
371,524;  380,925;  346,600;  357,450
371,601;  366,925;  371,600;  341,450
371,678;  366,925;  350,600;  355,450
371,755;  355,925;  366,600;  335,450
371,832;  378,925;  370,600;  375,450
371,909;  332,925;  370,600;  318,450
371,986;  393,925;  371,600;  394,450
372,063;  327,925;  324,600;  329,450
372,140;  348,925;  342,600;  359,450
372,216;  349,925;  356,600;  331,450
372,293;  346,925;  310,600;  347,450
372,370;  345,925;  375,600;  357,450
372,447;  370,925;  329,600;  372,450
372,524;  356,925;  350,600;  371,450
372,601;  351,925;  369,600;  321,450
372,677;  345,925;  344,600;  333,450
372,754;  373,925;  355,600;  360,450
372,831;  327,925;  356,600;  354,450
372,908;  378,925;  380,600;  385,450
372,984;  348,925;  362,600;  356,450
373,061;  329,925;  317,600;  334,450
373,138;  359,925;  367,600;  366,450
373,215;  332,925;  329,600;  317,450
373,291;  343,925;  347,600;  356,450
373,368;  326,925;  378,600;  362,450
373,445;  351,925;  374,600;  345,450
373,521;  328,925;  355,600;  341,450
373,598;  334,925;  354,600;  314,450
373,675;  322,925;  335,600;  358,450
373,751;  321,925;  336,600;  357,450
373,828;  304,925;  338,600;  346,450
373,904;  372,925;  409,600;  394,450
373,981;  345,925;  340,600;  337,450
374,057;  333,925;  343,600;  341,450
374,134;  335,925;  339,600;  316,450
374,211;  326,925;  330,600;  339,450
374,287;  334,925;  336,600;  339,450
374,364;  379,925;  379,600;  370,450
374,440;  337,925;  279,600;  284,450
374,517;  364,925;  367,600;  360,450
374,593;  331,925;  326,600;  299,450
374,670;  325,925;  335,600;  311,450
374,746;  358,925;  347,600;  339,450
374,823;  333,925;  389,600;  364,450
374,899;  340,925;  353,600;  394,450
374,975;  314,925;  336,600;  333,450
375,052;  321,925;  327,600;  327,450
375,128;  343,925;  281,600;  339,450
375,205;  367,925;  346,600;  378,450
375,281;  348,925;  294,600;  331,450
375,357;  389,925;  371,600;  352,450
375,434;  301,925;  313,600;  355,450
375,510;  350,925;  354,600;  323,450
375,586;  370,925;  356,600;  351,450
375,663;  324,925;  314,600;  307,450
375,739;  333,925;  355,600;  380,450
375,815;  339,925;  340,600;  317,450
375,892;  343,925;  340,600;  341,450
375,968;  339,925;  313,600;  325,450
376,044;  344,925;  370,600;  333,450
376,120;  343,925;  311,600;  364,450
376,197;  374,925;  361,600;  328,450
376,273;  328,925;  347,600;  334,450
376,349;  384,925;  386,600;  368,450
376,425;  398,925;  378,600;  336,450
376,501;  354,925;  329,600;  348,450
376,578;  393,925;  332,600;  426,450
376,654;  352,925;  393,600;  365,450
376,730;  352,925;  340,600;  352,450
376,806;  367,925;  346,600;  382,450
376,882;  373,925;  376,600;  332,450
376,958;  377,925;  367,600;  347,450
377,034;  290,925;  320,600;  296,450
377,111;  370,925;  393,600;  358,450
377,187;  406,925;  410,600;  383,450
377,263;  383,925;  397,600;  372,450
377,339;  349,925;  341,600;  319,450
377,415;  371,925;  339,600;  356,450
377,491;  353,925;  362,600;  325,450
377,567;  355,925;  340,600;  369,450
377,643;  410,925;  376,600;  362,450
377,719;  355,925;  368,600;  351,450
377,795;  372,925;  313,600;  350,450
377,871;  357,925;  366,600;  386,450
377,947;  356,925;  343,600;  352,450
378,023;  351,925;  355,600;  339,450
378,099;  384,925;  325,600;  367,450
378,174;  398,925;  364,600;  365,450
378,250;  361,925;  372,600;  389,450
378,326;  378,925;  369,600;  382,450
378,402;  386,925;  359,600;  343,450
378,478;  362,925;  340,600;  355,450
378,554;  377,925;  347,600;  374,450
378,630;  365,925;  369,600;  336,450
378,706;  361,925;  364,600;  321,450
378,781;  391,925;  387,600;  385,450
378,857;  379,925;  359,600;  347,450
378,933;  333,925;  359,600;  335,450
379,009;  327,925;  346,600;  342,450
379,085;  397,925;  419,600;  384,450
379,160;  378,925;  381,600;  366,450
379,236;  362,925;  359,600;  361,450
379,312;  381,925;  337,600;  365,450
379,387;  350,925;  372,600;  349,450
379,463;  355,925;  355,600;  344,450
379,539;  347,925;  408,600;  387,450
379,615;  347,925;  337,600;  364,450
379,690;  403,925;  420,600;  410,450
379,766;  417,925;  389,600;  370,450
379,842;  390,925;  385,600;  366,450
379,917;  390,925;  389,600;  369,450
379,993;  346,925;  370,600;  358,450
380,068;  376,925;  341,600;  349,450
380,144;  403,925;  398,600;  393,450
380,220;  355,925;  388,600;  391,450
380,295;  351,925;  356,600;  356,450
380,371;  347,925;  358,600;  361,450
380,446;  370,925;  418,600;  376,450
380,522;  370,925;  340,600;  360,450
380,597;  360,925;  377,600;  349,450
380,673;  384,925;  395,600;  384,450
380,748;  342,925;  338,600;  344,450
380,824;  367,925;  364,600;  362,450
380,899;  401,925;  371,600;  364,450
380,975;  384,925;  388,600;  402,450
381,050;  352,925;  363,600;  336,450
381,126;  377,925;  370,600;  362,450
381,201;  406,925;  407,600;  405,450
381,277;  361,925;  367,600;  390,450
381,352;  404,925;  389,600;  377,450
381,427;  366,925;  359,600;  370,450
381,503;  385,925;  394,600;  377,450
381,578;  349,925;  363,600;  360,450
381,653;  371,925;  381,600;  387,450
381,729;  370,925;  346,600;  360,450
381,804;  385,925;  373,600;  375,450
381,879;  369,925;  380,600;  366,450
381,955;  347,925;  343,600;  346,450
382,030;  348,925;  346,600;  339,450
382,105;  365,925;  372,600;  372,450
382,181;  373,925;  382,600;  367,450
382,256;  367,925;  373,600;  383,450
382,331;  370,925;  371,600;  375,450
382,406;  340,925;  368,600;  343,450
382,482;  399,925;  371,600;  380,450
382,557;  373,925;  362,600;  335,450
382,632;  378,925;  364,600;  365,450
382,707;  335,925;  393,600;  349,450
382,782;  384,925;  395,600;  385,450
382,857;  370,925;  373,600;  356,450
382,933;  345,925;  354,600;  349,450
383,008;  341,925;  325,600;  336,450
383,083;  360,925;  382,600;  360,450
383,158;  372,925;  375,600;  368,450
383,233;  333,925;  368,600;  362,450
383,308;  369,925;  360,600;  326,450
383,383;  343,925;  394,600;  390,450
383,458;  348,925;  344,600;  340,450
383,533;  362,925;  331,600;  334,450
383,608;  369,925;  367,600;  381,450
383,683;  393,925;  381,600;  367,450
383,758;  352,925;  398,600;  353,450
383,833;  378,925;  343,600;  350,450
383,908;  351,925;  321,600;  367,450
383,983;  359,925;  365,600;  328,450
384,058;  357,925;  340,600;  383,450
384,133;  364,925;  372,600;  376,450
384,208;  395,925;  395,600;  375,450
384,283;  370,925;  362,600;  321,450
384,358;  400,925;  392,600;  390,450
384,433;  349,925;  347,600;  341,450
384,508;  344,925;  339,600;  338,450
384,583;  382,925;  337,600;  355,450
384,658;  369,925;  352,600;  366,450
384,732;  322,925;  329,600;  319,450
384,807;  349,925;  347,600;  366,450
384,882;  364,925;  391,600;  349,450
384,957;  381,925;  348,600;  345,450
385,032;  379,925;  383,600;  373,450
385,106;  357,925;  342,600;  369,450
385,181;  371,925;  353,600;  359,450
385,256;  366,925;  367,600;  336,450
385,331;  373,925;  375,600;  364,450
385,405;  382,925;  383,600;  400,450
385,480;  347,925;  362,600;  372,450
385,555;  390,925;  402,600;  399,450
385,630;  379,925;  369,600;  370,450
385,704;  399,925;  353,600;  390,450
385,779;  359,925;  363,600;  368,450
385,854;  364,925;  364,600;  380,450
385,928;  359,925;  348,600;  365,450
386,003;  392,925;  390,600;  397,450
386,078;  366,925;  374,600;  369,450
386,152;  430,925;  391,600;  412,450
386,227;  382,925;  347,600;  354,450
386,301;  388,925;  389,600;  348,450
386,376;  334,925;  352,600;  346,450
386,450;  399,925;  356,600;  374,450
386,525;  369,925;  357,600;  376,450
386,600;  379,925;  367,600;  381,450
386,674;  378,925;  374,600;  364,450
386,749;  377,925;  395,600;  359,450
386,823;  378,925;  363,600;  377,450
386,898;  389,925;  386,600;  374,450
386,972;  404,925;  383,600;  354,450
387,047;  385,925;  368,600;  364,450
387,121;  389,925;  375,600;  363,450
387,195;  359,925;  359,600;  352,450
387,270;  405,925;  384,600;  385,450
387,344;  408,925;  429,600;  393,450
387,419;  369,925;  367,600;  412,450
387,493;  387,925;  371,600;  377,450
387,567;  352,925;  351,600;  336,450
387,642;  415,925;  383,600;  402,450
387,716;  342,925;  368,600;  378,450
387,790;  357,925;  337,600;  366,450
387,865;  370,925;  351,600;  364,450
387,939;  414,925;  405,600;  406,450
388,013;  412,925;  377,600;  417,450
388,088;  349,925;  361,600;  363,450
388,162;  365,925;  366,600;  355,450
388,236;  381,925;  381,600;  416,450
388,310;  369,925;  368,600;  361,450
388,385;  380,925;  324,600;  400,450
388,459;  381,925;  362,600;  379,450
388,533;  359,925;  378,600;  365,450
388,607;  369,925;  374,600;  378,450
388,682;  383,925;  369,600;  394,450
388,756;  368,925;  375,600;  378,450
388,830;  407,925;  378,600;  413,450
388,904;  388,925;  382,600;  382,450
388,978;  385,925;  368,600;  361,450
389,052;  346,925;  390,600;  343,450
389,126;  386,925;  353,600;  387,450
389,200;  368,925;  376,600;  362,450
389,275;  366,925;  382,600;  389,450
389,349;  397,925;  405,600;  380,450
389,423;  377,925;  380,600;  369,450
389,497;  393,925;  426,600;  377,450
389,571;  372,925;  391,600;  375,450
389,645;  381,925;  378,600;  388,450
389,719;  387,925;  384,600;  388,450
389,793;  343,925;  341,600;  322,450
389,867;  397,925;  410,600;  386,450
389,941;  368,925;  367,600;  369,450
390,015;  357,925;  348,600;  372,450
390,089;  384,925;  369,600;  344,450
390,163;  394,925;  368,600;  375,450
390,237;  389,925;  356,600;  361,450
390,310;  374,925;  393,600;  366,450
390,384;  371,925;  383,600;  344,450
390,458;  422,925;  414,600;  432,450
390,532;  383,925;  401,600;  395,450
390,606;  341,925;  361,600;  328,450
390,680;  361,925;  354,600;  373,450
390,754;  390,925;  373,600;  342,450
390,827;  409,925;  382,600;  388,450
390,901;  384,925;  362,600;  377,450
390,975;  359,925;  366,600;  368,450
391,049;  373,925;  374,600;  392,450
391,123;  371,925;  342,600;  367,450
391,196;  341,925;  344,600;  368,450
391,270;  412,925;  372,600;  366,450
391,344;  346,925;  384,600;  374,450
391,418;  363,925;  368,600;  366,450
391,491;  404,925;  362,600;  365,450
391,565;  375,925;  341,600;  346,450
391,639;  414,925;  379,600;  381,450
391,712;  405,925;  373,600;  385,450
391,786;  398,925;  401,600;  429,450
391,860;  380,925;  354,600;  354,450
391,933;  374,925;  366,600;  333,450
392,007;  369,925;  393,600;  364,450
392,081;  411,925;  404,600;  366,450
392,154;  405,925;  366,600;  394,450
392,228;  402,925;  392,600;  387,450
392,301;  367,925;  366,600;  402,450
392,375;  405,925;  394,600;  406,450
392,448;  404,925;  397,600;  375,450
392,522;  389,925;  382,600;  383,450
392,595;  381,925;  389,600;  365,450
392,669;  416,925;  386,600;  367,450
392,742;  407,925;  378,600;  401,450
392,816;  398,925;  376,600;  383,450
392,889;  385,925;  392,600;  401,450
392,963;  409,925;  400,600;  382,450
393,036;  390,925;  366,600;  401,450
393,110;  448,925;  388,600;  376,450
393,183;  405,925;  407,600;  399,450
393,257;  433,925;  437,600;  408,450
393,330;  377,925;  373,600;  391,450
393,403;  381,925;  410,600;  372,450
393,477;  362,925;  347,600;  364,450
393,550;  395,925;  413,600;  387,450
393,623;  403,925;  374,600;  402,450
393,697;  403,925;  404,600;  411,450
393,770;  411,925;  386,600;  364,450
393,843;  403,925;  419,600;  412,450
393,917;  412,925;  400,600;  407,450
393,990;  424,925;  378,600;  395,450
394,063;  406,925;  403,600;  375,450
394,136;  370,925;  390,600;  390,450
394,210;  400,925;  393,600;  380,450
394,283;  428,925;  385,600;  395,450
394,356;  410,925;  410,600;  373,450
394,429;  411,925;  399,600;  357,450
394,502;  381,925;  404,600;  373,450
394,576;  402,925;  416,600;  404,450
394,649;  380,925;  376,600;  381,450
394,722;  389,925;  390,600;  390,450
394,795;  400,925;  413,600;  406,450
394,868;  359,925;  369,600;  390,450
394,941;  381,925;  371,600;  368,450
395,014;  408,925;  419,600;  416,450
395,088;  423,925;  404,600;  391,450
395,161;  394,925;  402,600;  399,450
395,234;  406,925;  390,600;  397,450
395,307;  393,925;  413,600;  388,450
395,380;  376,925;  393,600;  392,450
395,453;  440,925;  439,600;  425,450
395,526;  419,925;  430,600;  407,450
395,599;  427,925;  422,600;  432,450
395,672;  389,925;  378,600;  408,450
395,745;  406,925;  400,600;  390,450
395,818;  384,925;  385,600;  376,450
395,891;  398,925;  408,600;  379,450
395,964;  440,925;  398,600;  436,450
396,036;  387,925;  400,600;  390,450
396,109;  409,925;  399,600;  381,450
396,182;  384,925;  392,600;  382,450
396,255;  399,925;  417,600;  383,450
396,328;  392,925;  412,600;  432,450
396,401;  354,925;  363,600;  381,450
396,474;  367,925;  399,600;  360,450
396,547;  404,925;  411,600;  417,450
396,619;  368,925;  384,600;  393,450
396,692;  412,925;  371,600;  354,450
396,765;  391,925;  375,600;  376,450
396,838;  402,925;  367,600;  390,450
396,911;  378,925;  363,600;  352,450
396,983;  398,925;  385,600;  396,450
397,056;  378,925;  375,600;  367,450
397,129;  414,925;  369,600;  368,450
397,201;  391,925;  413,600;  395,450
397,274;  393,925;  379,600;  382,450
397,347;  357,925;  364,600;  378,450
397,420;  387,925;  373,600;  379,450
397,492;  383,925;  404,600;  380,450
397,565;  382,925;  372,600;  365,450
397,637;  363,925;  371,600;  361,450
397,710;  359,925;  349,600;  341,450
397,783;  400,925;  444,600;  401,450
397,855;  332,925;  363,600;  346,450
397,928;  377,925;  381,600;  330,450
398,000;  398,925;  369,600;  384,450
398,073;  368,925;  376,600;  372,450
398,146;  344,925;  365,600;  358,450
398,218;  398,925;  417,600;  363,450
398,291;  375,925;  398,600;  385,450
398,363;  431,925;  370,600;  358,450
398,436;  358,925;  369,600;  360,450
398,508;  378,925;  378,600;  369,450
398,581;  369,925;  368,600;  367,450
398,653;  344,925;  318,600;  382,450
398,726;  372,925;  376,600;  371,450
398,798;  381,925;  390,600;  376,450
398,870;  367,925;  374,600;  374,450
398,943;  351,925;  371,600;  357,450
399,015;  352,925;  362,600;  383,450
399,088;  394,925;  377,600;  373,450
399,160;  347,925;  370,600;  348,450
399,232;  344,925;  332,600;  349,450
399,305;  380,925;  379,600;  362,450
399,377;  386,925;  350,600;  343,450
399,449;  403,925;  398,600;  388,450
399,522;  426,925;  442,600;  416,450
399,594;  366,925;  359,600;  346,450
399,666;  380,925;  393,600;  361,450
399,738;  397,925;  378,600;  375,450
399,811;  352,925;  370,600;  388,450
399,883;  379,925;  392,600;  378,450
399,955;  399,925;  429,600;  331,450
400,027;  328,925;  342,600;  364,450
400,100;  381,925;  402,600;  427,450
400,172;  350,925;  360,600;  354,450
400,244;  390,925;  369,600;  361,450
400,316;  398,925;  396,600;  381,450
400,388;  388,925;  408,600;  368,450
400,460;  359,925;  350,600;  359,450
400,532;  323,925;  329,600;  337,450
400,605;  381,925;  378,600;  368,450
400,677;  385,925;  389,600;  380,450
400,749;  384,925;  403,600;  406,450
400,821;  392,925;  384,600;  385,450
400,893;  358,925;  364,600;  384,450
400,965;  405,925;  390,600;  380,450
401,037;  383,925;  376,600;  402,450
401,109;  382,925;  363,600;  365,450
401,181;  360,925;  383,600;  398,450

