p100promedio
Integration time [ms]:   0,150
Averaging Nr. [scans]: 100
Smoothing Nr. [pixels]: 0
Data measured with spectrometer [name]: 7416147SP
Wave   ;Sample   ;Dark     ;Reference
[nm]   ;[counts] ;[counts] ;[counts] 

230,218;  289,197;  284,600;  274,450
230,311;  312,846;  306,600;  296,450
230,404;  302,577;  298,600;  326,450
230,497;  312,186;  295,600;  309,450
230,591;  329,346;  342,600;  328,450
230,684;  325,846;  317,600;  333,450
230,777;  307,417;  318,600;  312,450
230,870;  309,036;  330,600;  321,450
230,964;  308,007;  321,600;  306,450
231,057;  337,887;  306,600;  332,450
231,150;  329,107;  320,600;  304,450
231,243;  326,776;  310,600;  310,450
231,336;  329,727;  334,600;  326,450
231,430;  313,126;  320,600;  279,450
231,523;  320,816;  346,600;  304,450
231,616;  305,126;  297,600;  290,450
231,709;  337,556;  328,600;  315,450
231,802;  311,107;  280,600;  295,450
231,895;  310,836;  293,600;  313,450
231,988;  319,846;  312,600;  320,450
232,082;  302,366;  316,600;  281,450
232,175;  309,126;  289,600;  279,450
232,268;  310,197;  319,600;  301,450
232,361;  309,167;  288,600;  264,450
232,454;  327,207;  297,600;  320,450
232,547;  325,887;  333,600;  272,450
232,640;  300,376;  314,600;  287,450
232,733;  323,126;  297,600;  300,450
232,826;  302,086;  303,600;  270,450
232,919;  321,267;  318,600;  294,450
233,012;  300,577;  322,600;  292,450
233,105;  306,786;  318,600;  283,450
233,199;  312,066;  324,600;  298,450
233,292;  300,207;  293,600;  307,450
233,385;  268,177;  262,600;  233,450
233,478;  301,697;  302,600;  272,450
233,571;  331,637;  314,600;  293,450
233,664;  314,376;  341,600;  283,450
233,757;  287,547;  254,600;  231,450
233,850;  289,966;  272,600;  248,450
233,943;  300,906;  298,600;  272,450
234,035;  308,286;  318,600;  292,450
234,128;  289,797;  282,600;  265,450
234,221;  308,806;  310,600;  293,450
234,314;  315,767;  333,600;  318,450
234,407;  318,137;  338,600;  286,450
234,500;  285,197;  286,600;  280,450
234,593;  298,047;  280,600;  290,450
234,686;  302,586;  276,600;  256,450
234,779;  296,816;  270,600;  275,450
234,872;  289,857;  276,600;  261,450
234,965;  296,427;  298,600;  286,450
235,058;  283,626;  269,600;  263,450
235,150;  296,797;  311,600;  286,450
235,243;  291,697;  280,600;  311,450
235,336;  312,007;  317,600;  296,450
235,429;  280,987;  258,600;  241,450
235,522;  341,846;  352,600;  293,450
235,615;  273,007;  309,600;  253,450
235,707;  288,036;  289,600;  277,450
235,800;  297,767;  302,600;  268,450
235,893;  295,566;  328,600;  262,450
235,986;  306,547;  305,600;  312,450
236,079;  293,237;  310,600;  308,450
236,171;  276,647;  272,600;  270,450
236,264;  319,517;  310,600;  282,450
236,357;  300,336;  289,600;  297,450
236,450;  319,316;  314,600;  308,450
236,542;  277,186;  286,600;  258,450
236,635;  324,056;  319,600;  287,450
236,728;  295,466;  276,600;  273,450
236,821;  284,376;  270,600;  268,450
236,913;  285,966;  326,600;  268,450
237,006;  275,477;  300,600;  257,450
237,099;  290,806;  289,600;  271,450
237,191;  307,316;  345,600;  288,450
237,284;  278,887;  256,600;  282,450
237,377;  301,577;  294,600;  312,450
237,470;  292,887;  291,600;  256,450
237,562;  286,707;  266,600;  261,450
237,655;  331,417;  342,600;  294,450
237,747;  308,366;  325,600;  263,450
237,840;  320,897;  292,600;  302,450
237,933;  308,096;  327,600;  284,450
238,025;  312,827;  338,600;  306,450
238,118;  289,746;  306,600;  287,450
238,211;  279,017;  282,600;  227,450
238,303;  277,306;  277,600;  273,450
238,396;  272,316;  289,600;  270,450
238,488;  298,927;  300,600;  281,450
238,581;  293,267;  306,600;  235,450
238,673;  294,216;  304,600;  273,450
238,766;  289,466;  268,600;  282,450
238,859;  278,786;  282,600;  277,450
238,951;  288,466;  295,600;  280,450
239,044;  283,686;  270,600;  283,450
239,136;  278,066;  269,600;  284,450
239,229;  285,647;  297,600;  291,450
239,321;  278,767;  262,600;  248,450
239,414;  301,007;  289,600;  288,450
239,506;  293,306;  280,600;  267,450
239,599;  327,056;  352,600;  292,450
239,691;  295,577;  306,600;  269,450
239,784;  314,517;  296,600;  288,450
239,876;  303,626;  280,600;  288,450
239,969;  296,656;  287,600;  281,450
240,061;  282,936;  277,600;  262,450
240,153;  287,586;  260,600;  278,450
240,246;  296,477;  295,600;  292,450
240,338;  321,436;  309,600;  324,450
240,431;  276,626;  277,600;  282,450
240,523;  278,586;  300,600;  237,450
240,615;  306,776;  293,600;  321,450
240,708;  319,417;  355,600;  292,450
240,800;  295,936;  302,600;  288,450
240,893;  280,917;  274,600;  261,450
240,985;  301,126;  321,600;  270,450
241,077;  278,897;  268,600;  262,450
241,170;  311,876;  313,600;  286,450
241,262;  300,857;  284,600;  284,450
241,354;  260,257;  246,600;  244,450
241,447;  290,716;  286,600;  271,450
241,539;  276,017;  295,600;  247,450
241,631;  324,487;  312,600;  279,450
241,724;  271,107;  261,600;  246,450
241,816;  290,207;  258,600;  264,450
241,908;  286,786;  278,600;  263,450
242,000;  288,536;  283,600;  263,450
242,093;  288,996;  303,600;  261,450
242,185;  288,996;  306,600;  269,450
242,277;  284,716;  282,600;  242,450
242,369;  293,376;  278,600;  269,450
242,462;  283,936;  271,600;  247,450
242,554;  286,667;  253,600;  266,450
242,646;  290,017;  282,600;  270,450
242,738;  317,066;  320,600;  281,450
242,830;  267,727;  292,600;  230,450
242,923;  305,776;  309,600;  303,450
243,015;  277,686;  288,600;  269,450
243,107;  278,996;  280,600;  253,450
243,199;  285,257;  309,600;  300,450
243,291;  279,427;  319,600;  253,450
243,383;  262,697;  240,600;  273,450
243,476;  276,697;  257,600;  282,450
243,568;  288,737;  293,600;  284,450
243,660;  285,107;  260,600;  268,450
243,752;  292,586;  305,600;  270,450
243,844;  306,026;  299,600;  284,450
243,936;  296,517;  316,600;  299,450
244,028;  309,126;  332,600;  290,450
244,120;  257,447;  267,600;  230,450
244,212;  298,447;  298,600;  289,450
244,305;  270,297;  267,600;  270,450
244,397;  295,376;  315,600;  267,450
244,489;  310,536;  303,600;  285,450
244,581;  304,406;  301,600;  279,450
244,673;  288,996;  286,600;  252,450
244,765;  296,227;  277,600;  293,450
244,857;  292,237;  303,600;  251,450
244,949;  295,397;  305,600;  282,450
245,041;  260,216;  250,600;  223,450
245,133;  301,207;  294,600;  292,450
245,225;  286,656;  258,600;  248,450
245,317;  294,757;  253,600;  267,450
245,409;  276,376;  282,600;  263,450
245,501;  295,577;  286,600;  265,450
245,593;  292,447;  328,600;  278,450
245,685;  291,186;  330,600;  286,450
245,776;  292,286;  298,600;  267,450
245,868;  274,966;  308,600;  263,450
245,960;  269,727;  242,600;  252,450
246,052;  314,876;  291,600;  307,450
246,144;  298,797;  282,600;  285,450
246,236;  286,626;  296,600;  257,450
246,328;  292,487;  285,600;  287,450
246,420;  288,286;  282,600;  270,450
246,512;  316,686;  303,600;  295,450
246,604;  292,947;  280,600;  278,450
246,695;  278,517;  275,600;  268,450
246,787;  303,927;  288,600;  299,450
246,879;  297,767;  296,600;  275,450
246,971;  306,737;  305,600;  285,450
247,063;  281,966;  281,600;  253,450
247,155;  303,586;  295,600;  240,450
247,246;  290,776;  305,600;  285,450
247,338;  297,977;  297,600;  287,450
247,430;  302,186;  298,600;  312,450
247,522;  307,436;  294,600;  294,450
247,613;  307,427;  287,600;  278,450
247,705;  297,806;  302,600;  286,450
247,797;  318,207;  322,600;  301,450
247,889;  312,596;  294,600;  286,450
247,980;  315,116;  318,600;  273,450
248,072;  326,186;  315,600;  275,450
248,164;  341,026;  368,600;  297,450
248,256;  295,197;  280,600;  302,450
248,347;  322,927;  312,600;  275,450
248,439;  291,526;  302,600;  260,450
248,531;  309,596;  301,600;  297,450
248,622;  314,417;  315,600;  318,450
248,714;  286,746;  303,600;  257,450
248,806;  306,757;  301,600;  287,450
248,897;  299,056;  266,600;  290,450
248,989;  271,637;  260,600;  246,450
249,081;  291,776;  291,600;  305,450
249,172;  300,517;  289,600;  264,450
249,264;  283,156;  310,600;  303,450
249,356;  283,647;  274,600;  253,450
249,447;  289,797;  287,600;  283,450
249,539;  288,297;  289,600;  288,450
249,630;  300,707;  296,600;  286,450
249,722;  323,156;  310,600;  305,450
249,813;  293,387;  302,600;  256,450
249,905;  300,246;  319,600;  291,450
249,997;  289,007;  270,600;  248,450
250,088;  295,436;  295,600;  285,450
250,180;  295,387;  280,600;  288,450
250,271;  293,977;  296,600;  268,450
250,363;  332,257;  329,600;  307,450
250,454;  288,316;  268,600;  238,450
250,546;  302,457;  271,600;  272,450
250,637;  278,846;  285,600;  242,450
250,729;  285,096;  267,600;  250,450
250,820;  305,517;  306,600;  297,450
250,912;  281,397;  299,600;  243,450
251,003;  294,547;  285,600;  296,450
251,095;  295,737;  296,600;  273,450
251,186;  284,036;  269,600;  253,450
251,277;  292,357;  276,600;  290,450
251,369;  292,366;  295,600;  275,450
251,460;  290,836;  272,600;  272,450
251,552;  306,996;  293,600;  292,450
251,643;  299,216;  292,600;  276,450
251,735;  297,637;  303,600;  241,450
251,826;  291,526;  313,600;  259,450
251,917;  319,957;  325,600;  258,450
252,009;  322,066;  338,600;  254,450
252,100;  325,647;  343,600;  266,450
252,191;  347,397;  337,600;  260,450
252,283;  340,246;  328,600;  299,450
252,374;  367,616;  372,600;  289,450
252,465;  392,207;  390,600;  301,450
252,557;  391,496;  393,600;  251,450
252,648;  387,267;  378,600;  258,450
252,739;  424,257;  397,600;  267,450
252,831;  419,237;  439,600;  250,450
252,922;  461,286;  440,600;  266,450
253,013;  507,566;  520,600;  241,450
253,104;  568,917;  576,600;  255,450
253,196;  683,417;  712,600;  265,450
253,287;  846,687;  807,600;  289,450
253,378; 1212,467; 1233,600;  257,450
253,469; 4215,497; 4083,600;  246,450
253,561;23038,977;23239,600;  253,450
253,652;42193,828;42949,602;  272,450
253,743; 5788,037; 5893,600;  210,450
253,834;  622,646;  622,600;  260,450
253,926;  498,177;  531,600;  249,450
254,017;  477,186;  459,600;  280,450
254,108;  450,677;  528,600;  290,450
254,199;  429,737;  418,600;  277,450
254,290;  429,137;  380,600;  290,450
254,381;  410,286;  429,600;  276,450
254,472;  410,987;  437,600;  250,450
254,564;  412,346;  411,600;  327,450
254,655;  389,007;  392,600;  304,450
254,746;  341,566;  345,600;  225,450
254,837;  377,096;  372,600;  282,450
254,928;  353,357;  368,600;  247,450
255,019;  361,887;  375,600;  281,450
255,110;  365,936;  357,600;  302,450
255,201;  344,246;  318,600;  284,450
255,292;  375,457;  381,600;  271,450
255,383;  341,126;  347,600;  265,450
255,474;  331,257;  329,600;  248,450
255,566;  343,727;  366,600;  271,450
255,657;  340,677;  350,600;  306,450
255,748;  304,457;  292,600;  235,450
255,839;  316,167;  331,600;  282,450
255,930;  323,586;  292,600;  302,450
256,021;  326,626;  336,600;  297,450
256,112;  309,147;  296,600;  257,450
256,203;  335,917;  339,600;  315,450
256,294;  323,286;  321,600;  265,450
256,384;  303,107;  279,600;  261,450
256,475;  312,786;  289,600;  284,450
256,566;  300,327;  297,600;  274,450
256,657;  296,056;  291,600;  267,450
256,748;  294,376;  302,600;  280,450
256,839;  292,007;  281,600;  274,450
256,930;  296,167;  278,600;  260,450
257,021;  315,336;  328,600;  283,450
257,112;  317,677;  311,600;  327,450
257,203;  272,246;  268,600;  240,450
257,294;  266,487;  276,600;  257,450
257,385;  298,846;  284,600;  272,450
257,475;  288,966;  277,600;  255,450
257,566;  298,586;  313,600;  267,450
257,657;  284,346;  339,600;  264,450
257,748;  283,637;  283,600;  252,450
257,839;  289,836;  319,600;  306,450
257,930;  293,566;  276,600;  275,450
258,020;  273,987;  278,600;  281,450
258,111;  271,017;  285,600;  256,450
258,202;  297,667;  309,600;  258,450
258,293;  290,096;  267,600;  255,450
258,384;  308,457;  329,600;  295,450
258,474;  294,927;  296,600;  244,450
258,565;  274,757;  250,600;  252,450
258,656;  296,786;  306,600;  257,450
258,747;  274,746;  293,600;  255,450
258,837;  280,656;  266,600;  231,450
258,928;  281,887;  247,600;  280,450
259,019;  277,757;  272,600;  264,450
259,109;  274,707;  264,600;  254,450
259,200;  295,036;  292,600;  291,450
259,291;  271,126;  246,600;  297,450
259,381;  293,406;  309,600;  264,450
259,472;  299,077;  299,600;  272,450
259,563;  304,496;  307,600;  273,450
259,653;  280,376;  281,600;  247,450
259,744;  269,906;  280,600;  260,450
259,835;  304,786;  284,600;  274,450
259,925;  276,357;  257,600;  276,450
260,016;  291,806;  303,600;  282,450
260,107;  264,177;  264,600;  265,450
260,197;  284,357;  279,600;  258,450
260,288;  278,947;  263,600;  273,450
260,378;  272,716;  274,600;  244,450
260,469;  292,577;  299,600;  273,450
260,560;  267,996;  267,600;  276,450
260,650;  274,866;  269,600;  265,450
260,741;  281,096;  279,600;  256,450
260,831;  280,457;  246,600;  276,450
260,922;  266,716;  271,600;  258,450
261,012;  274,906;  271,600;  256,450
261,103;  304,647;  320,600;  294,450
261,193;  303,626;  317,600;  320,450
261,284;  271,866;  256,600;  254,450
261,374;  302,637;  295,600;  253,450
261,465;  289,336;  321,600;  304,450
261,555;  277,466;  271,600;  275,450
261,646;  295,007;  290,600;  300,450
261,736;  290,507;  265,600;  287,450
261,827;  286,566;  293,600;  256,450
261,917;  311,017;  294,600;  344,450
262,007;  287,197;  269,600;  289,450
262,098;  287,827;  334,600;  256,450
262,188;  330,917;  316,600;  305,450
262,279;  300,096;  290,600;  292,450
262,369;  289,776;  276,600;  282,450
262,459;  290,457;  262,600;  260,450
262,550;  298,586;  314,600;  290,450
262,640;  275,767;  261,600;  274,450
262,731;  299,177;  302,600;  298,450
262,821;  310,596;  287,600;  323,450
262,911;  298,707;  312,600;  268,450
263,002;  288,346;  278,600;  271,450
263,092;  307,607;  292,600;  309,450
263,182;  283,686;  280,600;  257,450
263,273;  284,276;  277,600;  261,450
263,363;  299,406;  309,600;  284,450
263,453;  269,387;  266,600;  259,450
263,543;  290,357;  289,600;  326,450
263,634;  263,566;  263,600;  262,450
263,724;  292,066;  278,600;  276,450
263,814;  308,857;  304,600;  288,450
263,904;  283,846;  270,600;  267,450
263,995;  320,267;  306,600;  321,450
264,085;  294,977;  301,600;  259,450
264,175;  298,156;  284,600;  306,450
264,265;  316,297;  305,600;  298,450
264,356;  272,767;  260,600;  289,450
264,446;  307,577;  296,600;  298,450
264,536;  295,507;  270,600;  297,450
264,626;  314,286;  315,600;  295,450
264,716;  298,017;  330,600;  277,450
264,806;  310,427;  327,600;  306,450
264,897;  254,296;  255,600;  273,450
264,987;  306,286;  310,600;  286,450
265,077;  313,387;  297,600;  285,450
265,167;  368,697;  394,600;  346,450
265,257;  332,786;  333,600;  273,450
265,347;  328,857;  331,600;  286,450
265,437;  314,737;  304,600;  289,450
265,527;  310,517;  314,600;  292,450
265,617;  279,957;  292,600;  265,450
265,708;  316,556;  330,600;  308,450
265,798;  305,336;  315,600;  301,450
265,888;  303,257;  275,600;  270,450
265,978;  291,297;  274,600;  242,450
266,068;  309,316;  291,600;  316,450
266,158;  290,327;  288,600;  254,450
266,248;  271,267;  305,600;  248,450
266,338;  312,647;  307,600;  293,450
266,428;  298,556;  294,600;  259,450
266,518;  307,866;  321,600;  320,450
266,608;  296,697;  245,600;  273,450
266,698;  269,957;  284,600;  256,450
266,788;  273,977;  263,600;  248,450
266,878;  326,327;  350,600;  317,450
266,968;  304,707;  282,600;  304,450
267,058;  295,936;  280,600;  292,450
267,147;  304,517;  327,600;  300,450
267,237;  288,957;  293,600;  276,450
267,327;  281,626;  292,600;  276,450
267,417;  298,276;  320,600;  264,450
267,507;  291,186;  297,600;  294,450
267,597;  282,257;  273,600;  272,450
267,687;  281,477;  268,600;  286,450
267,777;  282,496;  267,600;  270,450
267,867;  311,697;  321,600;  296,450
267,956;  304,116;  282,600;  257,450
268,046;  304,977;  306,600;  298,450
268,136;  298,866;  265,600;  291,450
268,226;  275,007;  269,600;  261,450
268,316;  276,207;  266,600;  262,450
268,406;  288,827;  268,600;  338,450
268,495;  280,517;  278,600;  259,450
268,585;  303,586;  304,600;  263,450
268,675;  279,776;  296,600;  260,450
268,765;  293,987;  296,600;  287,450
268,854;  283,167;  277,600;  291,450
268,944;  287,487;  288,600;  299,450
269,034;  284,936;  313,600;  279,450
269,124;  279,487;  283,600;  286,450
269,213;  282,586;  277,600;  255,450
269,303;  286,406;  290,600;  247,450
269,393;  298,397;  265,600;  307,450
269,483;  293,966;  338,600;  273,450
269,572;  280,746;  295,600;  243,450
269,662;  279,677;  286,600;  301,450
269,752;  313,547;  320,600;  299,450
269,841;  269,417;  270,600;  247,450
269,931;  281,616;  264,600;  276,450
270,021;  300,237;  299,600;  295,450
270,110;  286,107;  286,600;  268,450
270,200;  290,846;  329,600;  299,450
270,289;  278,607;  258,600;  279,450
270,379;  302,216;  315,600;  282,450
270,469;  289,786;  297,600;  273,450
270,558;  300,616;  300,600;  286,450
270,648;  281,227;  266,600;  245,450
270,737;  291,267;  288,600;  271,450
270,827;  308,357;  279,600;  263,450
270,916;  288,126;  266,600;  280,450
271,006;  291,507;  287,600;  287,450
271,096;  320,017;  312,600;  334,450
271,185;  286,457;  307,600;  299,450
271,275;  300,526;  305,600;  279,450
271,364;  280,346;  300,600;  286,450
271,454;  308,237;  301,600;  273,450
271,543;  294,216;  295,600;  279,450
271,633;  286,596;  293,600;  257,450
271,722;  290,116;  240,600;  257,450
271,812;  284,686;  255,600;  299,450
271,901;  290,096;  276,600;  286,450
271,990;  287,727;  293,600;  267,450
272,080;  289,227;  282,600;  284,450
272,169;  296,427;  339,600;  288,450
272,259;  292,066;  319,600;  275,450
272,348;  300,427;  291,600;  305,450
272,438;  295,316;  302,600;  301,450
272,527;  303,147;  288,600;  290,450
272,616;  299,406;  295,600;  300,450
272,706;  321,357;  319,600;  313,450
272,795;  310,056;  285,600;  290,450
272,884;  293,096;  302,600;  294,450
272,974;  315,857;  281,600;  279,450
273,063;  334,297;  361,600;  290,450
273,152;  302,286;  299,600;  296,450
273,242;  322,556;  296,600;  311,450
273,331;  316,887;  306,600;  299,450
273,420;  303,577;  296,600;  313,450
273,510;  304,366;  292,600;  311,450
273,599;  300,047;  323,600;  312,450
273,688;  299,716;  311,600;  299,450
273,778;  282,427;  266,600;  259,450
273,867;  315,077;  287,600;  312,450
273,956;  299,906;  303,600;  273,450
274,045;  271,137;  263,600;  236,450
274,135;  301,447;  317,600;  317,450
274,224;  286,616;  316,600;  295,450
274,313;  298,257;  299,600;  294,450
274,402;  279,246;  263,600;  266,450
274,491;  309,697;  277,600;  286,450
274,581;  299,036;  302,600;  266,450
274,670;  287,797;  311,600;  303,450
274,759;  296,306;  303,600;  283,450
274,848;  274,906;  275,600;  301,450
274,937;  285,656;  276,600;  293,450
275,026;  285,757;  298,600;  255,450
275,116;  315,806;  323,600;  309,450
275,205;  290,577;  263,600;  231,450
275,294;  325,026;  333,600;  302,450
275,383;  295,607;  253,600;  278,450
275,472;  286,286;  286,600;  299,450
275,561;  287,757;  299,600;  300,450
275,650;  302,716;  289,600;  281,450
275,739;  293,397;  268,600;  287,450
275,828;  271,987;  262,600;  259,450
275,917;  309,887;  318,600;  305,450
276,006;  296,086;  255,600;  304,450
276,095;  294,387;  276,600;  294,450
276,184;  303,906;  317,600;  317,450
276,273;  300,237;  270,600;  297,450
276,362;  274,496;  260,600;  256,450
276,451;  288,816;  271,600;  286,450
276,540;  289,257;  259,600;  271,450
276,629;  286,346;  274,600;  290,450
276,718;  268,547;  268,600;  258,450
276,807;  268,267;  275,600;  256,450
276,896;  277,957;  269,600;  277,450
276,985;  285,346;  287,600;  255,450
277,074;  297,096;  270,600;  267,450
277,163;  293,577;  289,600;  281,450
277,252;  276,906;  269,600;  278,450
277,341;  281,297;  272,600;  248,450
277,430;  273,947;  239,600;  255,450
277,519;  298,786;  304,600;  293,450
277,608;  264,987;  254,600;  244,450
277,696;  265,667;  272,600;  279,450
277,785;  278,147;  255,600;  276,450
277,874;  292,906;  285,600;  259,450
277,963;  281,806;  273,600;  248,450
278,052;  264,457;  264,600;  286,450
278,141;  285,616;  289,600;  267,450
278,229;  287,806;  279,600;  278,450
278,318;  264,887;  278,600;  269,450
278,407;  284,327;  288,600;  264,450
278,496;  284,897;  319,600;  277,450
278,585;  299,026;  288,600;  297,450
278,673;  259,406;  257,600;  251,450
278,762;  268,626;  238,600;  264,450
278,851;  285,406;  293,600;  272,450
278,940;  297,017;  293,600;  318,450
279,028;  297,286;  271,600;  284,450
279,117;  282,116;  290,600;  283,450
279,206;  278,876;  260,600;  254,450
279,294;  280,776;  280,600;  268,450
279,383;  284,866;  272,600;  289,450
279,472;  297,457;  311,600;  252,450
279,561;  282,727;  264,600;  275,450
279,649;  304,197;  305,600;  283,450
279,738;  256,096;  229,600;  266,450
279,827;  304,857;  285,600;  272,450
279,915;  275,417;  283,600;  248,450
280,004;  286,427;  273,600;  285,450
280,092;  304,746;  286,600;  275,450
280,181;  282,477;  284,600;  249,450
280,270;  290,007;  280,600;  236,450
280,358;  300,007;  299,600;  288,450
280,447;  267,286;  246,600;  240,450
280,535;  276,876;  284,600;  259,450
280,624;  271,517;  291,600;  256,450
280,713;  274,966;  267,600;  266,450
280,801;  293,816;  303,600;  274,450
280,890;  291,607;  262,600;  274,450
280,978;  275,517;  267,600;  239,450
281,067;  248,206;  229,600;  244,450
281,155;  275,536;  267,600;  279,450
281,244;  315,827;  301,600;  299,450
281,332;  289,466;  252,600;  297,450
281,421;  268,297;  273,600;  229,450
281,509;  285,366;  266,600;  268,450
281,598;  259,686;  255,600;  241,450
281,686;  285,477;  300,600;  277,450
281,775;  286,306;  283,600;  280,450
281,863;  279,017;  244,600;  264,450
281,951;  275,286;  254,600;  256,450
282,040;  307,366;  289,600;  320,450
282,128;  296,977;  289,600;  290,450
282,217;  268,496;  255,600;  246,450
282,305;  298,797;  291,600;  280,450
282,393;  286,066;  332,600;  266,450
282,482;  286,007;  314,600;  268,450
282,570;  271,346;  274,600;  279,450
282,658;  283,336;  295,600;  277,450
282,747;  271,857;  257,600;  278,450
282,835;  311,566;  319,600;  305,450
282,923;  263,387;  230,600;  262,450
283,012;  289,246;  268,600;  305,450
283,100;  270,207;  263,600;  230,450
283,188;  256,547;  244,600;  243,450
283,277;  280,096;  279,600;  282,450
283,365;  270,077;  252,600;  253,450
283,453;  263,697;  253,600;  228,450
283,542;  288,496;  293,600;  259,450
283,630;  277,757;  259,600;  271,450
283,718;  266,556;  271,600;  247,450
283,806;  243,227;  225,600;  226,450
283,894;  273,286;  276,600;  274,450
283,983;  282,656;  256,600;  279,450
284,071;  287,096;  307,600;  269,450
284,159;  304,227;  319,600;  305,450
284,247;  288,987;  296,600;  287,450
284,335;  286,686;  267,600;  263,450
284,424;  285,806;  287,600;  269,450
284,512;  282,686;  295,600;  248,450
284,600;  277,727;  261,600;  236,450
284,688;  312,387;  297,600;  325,450
284,776;  283,857;  259,600;  277,450
284,864;  306,107;  327,600;  300,450
284,952;  285,427;  291,600;  276,450
285,041;  294,137;  286,600;  304,450
285,129;  300,857;  304,600;  290,450
285,217;  299,647;  309,600;  280,450
285,305;  317,306;  297,600;  304,450
285,393;  274,767;  255,600;  268,450
285,481;  291,977;  292,600;  274,450
285,569;  285,156;  297,600;  281,450
285,657;  293,936;  272,600;  276,450
285,745;  290,586;  334,600;  282,450
285,833;  288,987;  277,600;  294,450
285,921;  299,336;  301,600;  299,450
286,009;  300,327;  308,600;  308,450
286,097;  293,496;  313,600;  288,450
286,185;  281,026;  294,600;  259,450
286,273;  276,667;  302,600;  257,450
286,361;  310,776;  322,600;  287,450
286,449;  291,496;  305,600;  260,450
286,537;  298,036;  300,600;  248,450
286,625;  289,096;  300,600;  275,450
286,713;  276,686;  262,600;  270,450
286,801;  303,577;  320,600;  307,450
286,889;  315,496;  304,600;  282,450
286,976;  286,977;  271,600;  266,450
287,064;  305,966;  297,600;  309,450
287,152;  302,616;  332,600;  299,450
287,240;  306,207;  297,600;  327,450
287,328;  282,966;  249,600;  245,450
287,416;  284,866;  295,600;  277,450
287,504;  298,147;  302,600;  274,450
287,591;  296,026;  317,600;  307,450
287,679;  282,366;  272,600;  275,450
287,767;  293,086;  270,600;  292,450
287,855;  302,137;  271,600;  284,450
287,943;  304,677;  312,600;  269,450
288,030;  289,346;  246,600;  293,450
288,118;  314,147;  325,600;  295,450
288,206;  277,376;  264,600;  290,450
288,294;  300,876;  273,600;  292,450
288,382;  301,207;  301,600;  288,450
288,469;  304,406;  324,600;  274,450
288,557;  292,616;  276,600;  275,450
288,645;  318,806;  321,600;  281,450
288,732;  275,197;  274,600;  276,450
288,820;  304,297;  334,600;  270,450
288,908;  301,327;  295,600;  295,450
288,995;  308,167;  295,600;  277,450
289,083;  289,977;  278,600;  278,450
289,171;  327,586;  328,600;  310,450
289,258;  376,417;  402,600;  311,450
289,346;  430,207;  433,600;  329,450
289,434;  307,056;  345,600;  318,450
289,521;  282,336;  298,600;  281,450
289,609;  320,137;  317,600;  309,450
289,697;  311,276;  310,600;  321,450
289,784;  294,346;  300,600;  284,450
289,872;  307,186;  314,600;  313,450
289,959;  275,457;  274,600;  262,450
290,047;  292,447;  268,600;  272,450
290,134;  272,257;  286,600;  264,450
290,222;  304,767;  317,600;  294,450
290,310;  306,697;  310,600;  280,450
290,397;  328,366;  302,600;  319,450
290,485;  287,036;  291,600;  284,450
290,572;  312,616;  286,600;  318,450
290,660;  299,806;  300,600;  293,450
290,747;  287,876;  292,600;  290,450
290,835;  293,637;  296,600;  321,450
290,922;  298,626;  307,600;  294,450
291,009;  295,936;  310,600;  283,450
291,097;  297,897;  305,600;  282,450
291,184;  329,086;  319,600;  313,450
291,272;  281,947;  297,600;  264,450
291,359;  280,686;  283,600;  283,450
291,447;  302,957;  294,600;  309,450
291,534;  320,406;  310,600;  315,450
291,621;  298,477;  261,600;  308,450
291,709;  277,346;  284,600;  270,450
291,796;  312,066;  313,600;  323,450
291,884;  285,477;  310,600;  308,450
291,971;  317,036;  306,600;  287,450
292,058;  285,286;  250,600;  294,450
292,146;  291,647;  293,600;  279,450
292,233;  279,207;  284,600;  243,450
292,320;  290,526;  294,600;  284,450
292,408;  308,107;  316,600;  297,450
292,495;  297,876;  302,600;  281,450
292,582;  284,336;  276,600;  273,450
292,669;  280,477;  273,600;  285,450
292,757;  279,977;  292,600;  288,450
292,844;  309,436;  305,600;  312,450
292,931;  280,216;  272,600;  266,450
293,018;  287,237;  267,600;  264,450
293,106;  298,517;  290,600;  324,450
293,193;  268,647;  265,600;  280,450
293,280;  294,586;  304,600;  310,450
293,367;  289,667;  279,600;  295,450
293,455;  290,556;  253,600;  248,450
293,542;  272,966;  264,600;  268,450
293,629;  273,767;  264,600;  272,450
293,716;  300,996;  341,600;  307,450
293,803;  283,216;  273,600;  279,450
293,890;  306,947;  284,600;  298,450
293,978;  284,536;  277,600;  266,450
294,065;  281,547;  293,600;  268,450
294,152;  299,246;  276,600;  315,450
294,239;  270,656;  294,600;  269,450
294,326;  283,716;  307,600;  277,450
294,413;  270,786;  280,600;  253,450
294,500;  288,346;  304,600;  286,450
294,587;  282,267;  291,600;  255,450
294,674;  304,517;  280,600;  314,450
294,761;  283,017;  283,600;  266,450
294,848;  284,257;  275,600;  288,450
294,935;  287,336;  281,600;  279,450
295,022;  267,036;  269,600;  243,450
295,109;  258,227;  259,600;  253,450
295,196;  286,707;  297,600;  309,450
295,283;  270,107;  295,600;  256,450
295,370;  308,647;  318,600;  307,450
295,457;  286,496;  266,600;  285,450
295,544;  281,477;  277,600;  264,450
295,631;  289,316;  282,600;  272,450
295,718;  269,667;  279,600;  248,450
295,805;  297,077;  298,600;  281,450
295,892;  301,616;  314,600;  274,450
295,979;  292,306;  294,600;  284,450
296,066;  294,716;  306,600;  278,450
296,153;  296,936;  313,600;  324,450
296,240;  298,786;  312,600;  282,450
296,327;  290,917;  286,600;  257,450
296,413;  314,846;  316,600;  272,450
296,500;  333,427;  330,600;  261,450
296,587;  549,687;  534,600;  268,450
296,674; 1704,286; 1749,600;  263,450
296,761;  773,927;  786,600;  252,450
296,848;  297,716;  299,600;  274,450
296,934;  292,836;  296,600;  274,450
297,021;  288,746;  286,600;  266,450
297,108;  273,366;  310,600;  269,450
297,195;  287,346;  276,600;  268,450
297,282;  284,996;  295,600;  273,450
297,368;  301,286;  297,600;  347,450
297,455;  278,306;  284,600;  259,450
297,542;  312,026;  330,600;  316,450
297,629;  294,927;  315,600;  290,450
297,715;  302,616;  309,600;  306,450
297,802;  298,036;  286,600;  273,450
297,889;  307,757;  307,600;  319,450
297,975;  320,876;  326,600;  320,450
298,062;  309,496;  325,600;  301,450
298,149;  271,737;  300,600;  269,450
298,235;  291,336;  286,600;  308,450
298,322;  292,007;  287,600;  291,450
298,409;  307,316;  340,600;  304,450
298,495;  274,167;  282,600;  250,450
298,582;  305,816;  303,600;  304,450
298,669;  290,936;  290,600;  290,450
298,755;  291,607;  295,600;  281,450
298,842;  300,806;  315,600;  314,450
298,928;  300,216;  298,600;  281,450
299,015;  292,707;  287,600;  296,450
299,102;  315,987;  306,600;  309,450
299,188;  312,267;  307,600;  292,450
299,275;  305,536;  313,600;  289,450
299,361;  275,797;  274,600;  256,450
299,448;  305,366;  283,600;  278,450
299,534;  303,237;  328,600;  282,450
299,621;  302,246;  323,600;  302,450
299,707;  300,827;  298,600;  298,450
299,794;  314,086;  318,600;  322,450
299,880;  315,177;  301,600;  313,450
299,967;  291,857;  285,600;  251,450
300,053;  293,096;  301,600;  301,450
300,140;  323,177;  314,600;  315,450
300,226;  308,427;  320,600;  297,450
300,312;  301,656;  310,600;  306,450
300,399;  302,906;  290,600;  309,450
300,485;  292,207;  310,600;  268,450
300,572;  276,596;  272,600;  257,450
300,658;  287,357;  299,600;  272,450
300,744;  305,746;  310,600;  301,450
300,831;  313,436;  302,600;  292,450
300,917;  318,417;  298,600;  310,450
301,004;  307,517;  299,600;  288,450
301,090;  273,406;  279,600;  254,450
301,176;  282,686;  284,600;  254,450
301,263;  314,607;  322,600;  282,450
301,349;  287,517;  294,600;  273,450
301,435;  278,137;  267,600;  268,450
301,521;  308,746;  323,600;  301,450
301,608;  306,017;  311,600;  319,450
301,694;  296,007;  304,600;  283,450
301,780;  300,647;  296,600;  288,450
301,867;  283,686;  281,600;  274,450
301,953;  301,607;  289,600;  304,450
302,039;  389,496;  409,600;  273,450
302,125;  538,687;  539,600;  281,450
302,211;  358,297;  349,600;  300,450
302,298;  349,987;  374,600;  261,450
302,384;  293,116;  296,600;  238,450
302,470;  289,816;  280,600;  280,450
302,556;  300,387;  331,600;  294,450
302,642;  291,276;  286,600;  226,450
302,729;  294,216;  300,600;  270,450
302,815;  309,616;  299,600;  269,450
302,901;  288,647;  267,600;  294,450
302,987;  304,586;  299,600;  293,450
303,073;  298,866;  284,600;  283,450
303,159;  291,767;  295,600;  305,450
303,245;  285,727;  279,600;  256,450
303,331;  281,607;  281,600;  277,450
303,417;  294,596;  283,600;  328,450
303,503;  307,556;  331,600;  293,450
303,590;  287,387;  289,600;  272,450
303,676;  296,637;  289,600;  302,450
303,762;  284,526;  288,600;  270,450
303,848;  311,096;  295,600;  316,450
303,934;  301,586;  323,600;  286,450
304,020;  297,237;  304,600;  288,450
304,106;  305,746;  318,600;  287,450
304,192;  289,647;  265,600;  275,450
304,278;  298,186;  297,600;  304,450
304,364;  322,237;  327,600;  303,450
304,450;  296,577;  283,600;  288,450
304,535;  298,116;  304,600;  295,450
304,621;  296,137;  302,600;  309,450
304,707;  299,906;  294,600;  296,450
304,793;  316,227;  323,600;  295,450
304,879;  303,786;  305,600;  292,450
304,965;  306,686;  297,600;  273,450
305,051;  305,716;  310,600;  260,450
305,137;  313,716;  266,600;  314,450
305,223;  284,917;  299,600;  301,450
305,309;  310,547;  306,600;  306,450
305,394;  304,846;  266,600;  282,450
305,480;  294,297;  298,600;  266,450
305,566;  300,876;  280,600;  297,450
305,652;  307,887;  297,600;  308,450
305,738;  342,507;  332,600;  315,450
305,824;  311,366;  280,600;  303,450
305,909;  319,866;  338,600;  301,450
305,995;  283,346;  267,600;  268,450
306,081;  340,876;  368,600;  334,450
306,167;  301,306;  287,600;  311,450
306,252;  322,647;  319,600;  311,450
306,338;  330,327;  332,600;  332,450
306,424;  302,047;  315,600;  260,450
306,510;  314,376;  355,600;  305,450
306,595;  319,707;  303,600;  335,450
306,681;  314,086;  321,600;  287,450
306,767;  300,427;  313,600;  286,450
306,852;  326,977;  337,600;  314,450
306,938;  320,186;  291,600;  336,450
307,024;  297,586;  281,600;  321,450
307,109;  328,366;  340,600;  327,450
307,195;  309,427;  318,600;  337,450
307,281;  313,786;  322,600;  315,450
307,366;  309,177;  319,600;  284,450
307,452;  311,267;  292,600;  312,450
307,537;  290,857;  289,600;  281,450
307,623;  290,686;  272,600;  282,450
307,709;  308,306;  302,600;  325,450
307,794;  281,116;  293,600;  258,450
307,880;  314,596;  321,600;  320,450
307,965;  305,366;  278,600;  274,450
308,051;  291,957;  263,600;  305,450
308,136;  293,156;  314,600;  260,450
308,222;  296,547;  306,600;  301,450
308,307;  289,297;  286,600;  312,450
308,393;  291,607;  294,600;  285,450
308,478;  315,376;  321,600;  308,450
308,564;  286,496;  280,600;  276,450
308,649;  301,887;  308,600;  304,450
308,735;  295,286;  320,600;  278,450
308,820;  312,957;  328,600;  304,450
308,906;  293,656;  298,600;  272,450
308,991;  332,786;  339,600;  314,450
309,076;  315,116;  335,600;  290,450
309,162;  276,977;  265,600;  245,450
309,247;  302,806;  297,600;  288,450
309,333;  288,536;  284,600;  286,450
309,418;  296,007;  281,600;  297,450
309,503;  295,147;  301,600;  289,450
309,589;  295,977;  308,600;  306,450
309,674;  284,517;  274,600;  268,450
309,759;  302,246;  291,600;  289,450
309,845;  304,056;  290,600;  312,450
309,930;  301,096;  292,600;  288,450
310,015;  273,536;  257,600;  251,450
310,101;  313,776;  282,600;  296,450
310,186;  284,077;  267,600;  298,450
310,271;  296,447;  298,600;  286,450
310,357;  289,026;  265,600;  286,450
310,442;  302,376;  288,600;  263,450
310,527;  295,757;  288,600;  306,450
310,612;  274,406;  291,600;  253,450
310,698;  311,257;  282,600;  275,450
310,783;  297,246;  288,600;  279,450
310,868;  290,336;  313,600;  263,450
310,953;  277,257;  269,600;  293,450
311,038;  306,436;  289,600;  286,450
311,124;  291,536;  296,600;  277,450
311,209;  276,177;  293,600;  291,450
311,294;  310,086;  306,600;  303,450
311,379;  272,376;  254,600;  258,450
311,464;  297,056;  302,600;  291,450
311,549;  284,547;  277,600;  294,450
311,634;  286,637;  284,600;  275,450
311,719;  316,656;  308,600;  309,450
311,805;  289,677;  308,600;  275,450
311,890;  297,346;  308,600;  261,450
311,975;  288,376;  262,600;  283,450
312,060;  304,036;  321,600;  289,450
312,145;  282,767;  277,600;  262,450
312,230;  310,827;  313,600;  285,450
312,315;  325,096;  325,600;  262,450
312,400;  401,286;  404,600;  303,450
312,485; 1693,917; 1668,600;  292,450
312,570; 1225,896; 1232,600;  239,450
312,655;  340,566;  342,600;  282,450
312,740;  322,607;  312,600;  289,450
312,825;  332,477;  329,600;  301,450
312,910;  352,126;  343,600;  278,450
312,995;  442,716;  443,600;  325,450
313,080; 2127,856; 2082,600;  265,450
313,165; 2161,546; 2149,600;  310,450
313,250;  357,297;  308,600;  276,450
313,335;  319,656;  321,600;  307,450
313,419;  274,917;  269,600;  242,450
313,504;  317,677;  304,600;  286,450
313,589;  298,957;  272,600;  277,450
313,674;  309,927;  303,600;  290,450
313,759;  283,966;  274,600;  273,450
313,844;  297,616;  276,600;  289,450
313,929;  290,056;  295,600;  285,450
314,014;  314,677;  307,600;  320,450
314,098;  297,607;  321,600;  305,450
314,183;  268,436;  258,600;  260,450
314,268;  291,496;  295,600;  290,450
314,353;  303,866;  287,600;  290,450
314,438;  308,897;  287,600;  294,450
314,522;  308,776;  272,600;  306,450
314,607;  303,846;  282,600;  302,450
314,692;  298,816;  291,600;  301,450
314,777;  288,056;  291,600;  279,450
314,861;  273,547;  293,600;  263,450
314,946;  311,616;  321,600;  303,450
315,031;  288,936;  284,600;  267,450
315,115;  302,257;  309,600;  318,450
315,200;  311,637;  301,600;  285,450
315,285;  288,466;  278,600;  275,450
315,369;  287,197;  282,600;  273,450
315,454;  307,637;  291,600;  305,450
315,539;  303,626;  280,600;  283,450
315,623;  308,186;  308,600;  292,450
315,708;  331,977;  326,600;  315,450
315,793;  294,566;  318,600;  308,450
315,877;  300,086;  311,600;  282,450
315,962;  281,727;  263,600;  283,450
316,046;  312,297;  327,600;  298,450
316,131;  333,436;  334,600;  313,450
316,216;  307,536;  308,600;  288,450
316,300;  296,036;  307,600;  281,450
316,385;  320,297;  301,600;  319,450
316,469;  324,457;  335,600;  331,450
316,554;  292,457;  290,600;  288,450
316,638;  294,276;  297,600;  286,450
316,723;  289,096;  285,600;  262,450
316,807;  294,816;  268,600;  273,450
316,892;  285,517;  293,600;  275,450
316,976;  307,827;  298,600;  318,450
317,061;  301,897;  282,600;  309,450
317,145;  322,246;  316,600;  315,450
317,230;  316,496;  309,600;  304,450
317,314;  275,656;  264,600;  259,450
317,398;  306,436;  280,600;  323,450
317,483;  283,686;  312,600;  266,450
317,567;  310,376;  299,600;  317,450
317,652;  278,477;  280,600;  244,450
317,736;  303,156;  277,600;  329,450
317,820;  327,066;  343,600;  287,450
317,905;  302,267;  311,600;  289,450
317,989;  296,246;  303,600;  312,450
318,073;  291,126;  281,600;  280,450
318,158;  282,596;  262,600;  284,450
318,242;  290,077;  297,600;  269,450
318,326;  280,616;  265,600;  260,450
318,411;  292,457;  263,600;  290,450
318,495;  282,936;  274,600;  286,450
318,579;  279,376;  264,600;  266,450
318,664;  275,457;  284,600;  242,450
318,748;  303,776;  290,600;  266,450
318,832;  285,246;  261,600;  263,450
318,916;  268,616;  272,600;  263,450
319,001;  296,306;  287,600;  299,450
319,085;  288,827;  265,600;  265,450
319,169;  286,297;  304,600;  285,450
319,253;  282,806;  270,600;  271,450
319,337;  301,047;  311,600;  265,450
319,422;  310,197;  329,600;  325,450
319,506;  281,936;  282,600;  264,450
319,590;  302,026;  303,600;  320,450
319,674;  294,887;  326,600;  301,450
319,758;  295,686;  277,600;  278,450
319,842;  304,607;  280,600;  290,450
319,926;  290,336;  268,600;  280,450
320,010;  266,566;  267,600;  226,450
320,095;  279,786;  284,600;  274,450
320,179;  272,707;  270,600;  263,450
320,263;  280,616;  259,600;  265,450
320,347;  268,216;  217,600;  260,450
320,431;  266,776;  267,600;  245,450
320,515;  291,616;  297,600;  267,450
320,599;  268,857;  274,600;  263,450
320,683;  300,466;  295,600;  306,450
320,767;  258,616;  246,600;  230,450
320,851;  280,806;  247,600;  282,450
320,935;  311,536;  294,600;  317,450
321,019;  283,776;  258,600;  297,450
321,103;  273,697;  319,600;  295,450
321,187;  268,397;  272,600;  303,450
321,271;  286,397;  299,600;  251,450
321,355;  273,866;  290,600;  264,450
321,439;  297,517;  282,600;  306,450
321,523;  276,346;  285,600;  287,450
321,606;  282,947;  289,600;  301,450
321,690;  283,276;  285,600;  261,450
321,774;  289,366;  284,600;  286,450
321,858;  289,316;  300,600;  283,450
321,942;  291,137;  298,600;  291,450
322,026;  281,167;  296,600;  280,450
322,110;  289,846;  286,600;  264,450
322,194;  292,366;  279,600;  293,450
322,277;  274,966;  287,600;  257,450
322,361;  272,857;  260,600;  265,450
322,445;  286,056;  285,600;  252,450
322,529;  291,466;  298,600;  264,450
322,613;  293,596;  273,600;  262,450
322,696;  265,626;  287,600;  266,450
322,780;  280,466;  303,600;  256,450
322,864;  269,776;  310,600;  288,450
322,948;  291,167;  262,600;  270,450
323,031;  274,556;  268,600;  269,450
323,115;  283,237;  299,600;  257,450
323,199;  291,227;  291,600;  268,450
323,282;  306,816;  284,600;  302,450
323,366;  285,286;  280,600;  307,450
323,450;  273,536;  241,600;  266,450
323,533;  311,656;  309,600;  308,450
323,617;  265,077;  243,600;  238,450
323,701;  278,866;  239,600;  257,450
323,784;  288,816;  305,600;  289,450
323,868;  291,397;  302,600;  285,450
323,952;  287,707;  276,600;  272,450
324,035;  300,906;  295,600;  297,450
324,119;  296,017;  285,600;  262,450
324,202;  285,107;  280,600;  298,450
324,286;  283,566;  236,600;  286,450
324,370;  288,957;  291,600;  274,450
324,453;  296,457;  287,600;  296,450
324,537;  290,927;  280,600;  281,450
324,620;  284,757;  295,600;  303,450
324,704;  269,496;  281,600;  261,450
324,787;  289,517;  295,600;  267,450
324,871;  307,806;  293,600;  314,450
324,954;  307,936;  299,600;  318,450
325,038;  304,297;  299,600;  301,450
325,121;  303,917;  302,600;  316,450
325,205;  286,306;  273,600;  277,450
325,288;  278,667;  280,600;  269,450
325,371;  293,596;  275,600;  285,450
325,455;  308,286;  289,600;  302,450
325,538;  286,346;  292,600;  308,450
325,622;  319,857;  302,600;  306,450
325,705;  293,577;  303,600;  300,450
325,788;  311,197;  297,600;  298,450
325,872;  297,806;  264,600;  279,450
325,955;  317,596;  305,600;  300,450
326,039;  301,616;  290,600;  313,450
326,122;  306,496;  277,600;  288,450
326,205;  305,957;  320,600;  299,450
326,289;  315,566;  313,600;  313,450
326,372;  293,017;  310,600;  288,450
326,455;  324,096;  322,600;  318,450
326,538;  310,496;  312,600;  306,450
326,622;  312,566;  285,600;  313,450
326,705;  280,966;  272,600;  290,450
326,788;  316,836;  288,600;  324,450
326,871;  311,616;  286,600;  281,450
326,955;  310,107;  293,600;  333,450
327,038;  301,107;  304,600;  284,450
327,121;  298,406;  313,600;  303,450
327,204;  306,957;  315,600;  298,450
327,288;  324,897;  326,600;  328,450
327,371;  289,237;  286,600;  294,450
327,454;  311,156;  303,600;  316,450
327,537;  293,107;  272,600;  285,450
327,620;  324,487;  327,600;  309,450
327,703;  306,346;  308,600;  314,450
327,786;  305,957;  320,600;  319,450
327,870;  317,077;  321,600;  308,450
327,953;  298,526;  307,600;  296,450
328,036;  293,116;  291,600;  264,450
328,119;  316,406;  345,600;  299,450
328,202;  302,276;  305,600;  287,450
328,285;  323,116;  336,600;  306,450
328,368;  315,466;  335,600;  328,450
328,451;  315,686;  325,600;  334,450
328,534;  300,026;  292,600;  283,450
328,617;  303,556;  290,600;  281,450
328,700;  325,846;  325,600;  327,450
328,783;  318,316;  319,600;  292,450
328,866;  312,947;  294,600;  287,450
328,949;  319,466;  341,600;  325,450
329,032;  295,827;  292,600;  308,450
329,115;  287,906;  288,600;  279,450
329,198;  275,167;  265,600;  282,450
329,281;  296,656;  310,600;  277,450
329,364;  312,987;  300,600;  330,450
329,447;  304,667;  303,600;  300,450
329,530;  325,507;  321,600;  317,450
329,613;  296,927;  302,600;  289,450
329,696;  326,866;  308,600;  298,450
329,778;  310,797;  313,600;  293,450
329,861;  294,936;  309,600;  288,450
329,944;  320,566;  326,600;  272,450
330,027;  308,007;  312,600;  296,450
330,110;  306,056;  305,600;  313,450
330,193;  293,336;  284,600;  300,450
330,275;  312,526;  290,600;  298,450
330,358;  288,406;  278,600;  298,450
330,441;  318,827;  307,600;  326,450
330,524;  303,096;  322,600;  298,450
330,607;  299,806;  281,600;  304,450
330,689;  309,526;  278,600;  321,450
330,772;  308,276;  290,600;  305,450
330,855;  324,526;  329,600;  287,450
330,938;  313,836;  332,600;  319,450
331,020;  312,656;  298,600;  292,450
331,103;  293,906;  280,600;  310,450
331,186;  300,316;  298,600;  286,450
331,268;  292,357;  280,600;  269,450
331,351;  312,566;  285,600;  311,450
331,434;  307,457;  296,600;  316,450
331,516;  316,556;  313,600;  329,450
331,599;  298,526;  266,600;  255,450
331,682;  305,866;  301,600;  302,450
331,764;  292,596;  308,600;  261,450
331,847;  312,346;  311,600;  310,450
331,929;  285,656;  286,600;  278,450
332,012;  305,327;  296,600;  295,450
332,095;  319,857;  348,600;  317,450
332,177;  319,686;  353,600;  324,450
332,260;  320,147;  349,600;  345,450
332,342;  309,306;  310,600;  291,450
332,425;  308,496;  301,600;  293,450
332,507;  306,417;  239,600;  316,450
332,590;  287,257;  274,600;  280,450
332,672;  286,496;  310,600;  264,450
332,755;  308,007;  320,600;  233,450
332,837;  303,137;  286,600;  274,450
332,920;  309,156;  315,600;  298,450
333,002;  322,737;  308,600;  306,450
333,085;  306,177;  308,600;  298,450
333,167;  292,716;  275,600;  266,450
333,249;  286,716;  276,600;  277,450
333,332;  289,556;  275,600;  279,450
333,414;  301,216;  317,600;  295,450
333,497;  298,767;  315,600;  305,450
333,579;  295,417;  303,600;  307,450
333,661;  315,316;  319,600;  286,450
333,744;  289,786;  265,600;  243,450
333,826;  304,066;  302,600;  293,450
333,908;  314,186;  329,600;  332,450
333,991;  296,547;  253,600;  285,450
334,073;  470,697;  503,600;  321,450
334,155;  351,406;  360,600;  289,450
334,238;  315,846;  314,600;  286,450
334,320;  292,846;  296,600;  270,450
334,402;  299,647;  298,600;  292,450
334,485;  299,056;  305,600;  282,450
334,567;  296,846;  301,600;  262,450
334,649;  276,757;  266,600;  273,450
334,731;  309,216;  287,600;  285,450
334,813;  311,526;  346,600;  352,450
334,896;  285,056;  296,600;  287,450
334,978;  298,116;  302,600;  283,450
335,060;  301,977;  306,600;  296,450
335,142;  294,397;  265,600;  306,450
335,224;  307,056;  308,600;  310,450
335,307;  291,306;  277,600;  275,450
335,389;  310,077;  302,600;  315,450
335,471;  296,197;  300,600;  282,450
335,553;  311,897;  308,600;  317,450
335,635;  306,186;  303,600;  277,450
335,717;  294,686;  280,600;  305,450
335,799;  316,376;  314,600;  325,450
335,881;  273,086;  271,600;  251,450
335,963;  288,836;  283,600;  278,450
336,045;  290,596;  281,600;  276,450
336,128;  266,947;  281,600;  268,450
336,210;  286,757;  284,600;  250,450
336,292;  293,866;  301,600;  283,450
336,374;  300,776;  307,600;  287,450
336,456;  281,447;  290,600;  258,450
336,538;  300,316;  288,600;  304,450
336,620;  306,257;  325,600;  305,450
336,702;  279,757;  308,600;  309,450
336,783;  297,397;  299,600;  289,450
336,865;  300,346;  302,600;  303,450
336,947;  304,677;  299,600;  302,450
337,029;  280,276;  252,600;  262,450
337,111;  313,767;  309,600;  328,450
337,193;  279,596;  257,600;  250,450
337,275;  307,096;  302,600;  291,450
337,357;  315,026;  299,600;  305,450
337,439;  302,346;  299,600;  277,450
337,521;  272,466;  274,600;  268,450
337,602;  293,496;  280,600;  295,450
337,684;  310,716;  302,600;  341,450
337,766;  305,707;  301,600;  288,450
337,848;  292,017;  309,600;  318,450
337,930;  298,036;  300,600;  300,450
338,012;  294,536;  257,600;  295,450
338,093;  311,186;  302,600;  312,450
338,175;  311,507;  308,600;  308,450
338,257;  300,466;  296,600;  243,450
338,339;  290,607;  303,600;  248,450
338,420;  304,177;  304,600;  329,450
338,502;  296,267;  292,600;  292,450
338,584;  280,077;  261,600;  270,450
338,666;  297,066;  293,600;  301,450
338,747;  329,857;  337,600;  324,450
338,829;  303,616;  301,600;  300,450
338,911;  293,656;  281,600;  284,450
338,992;  286,936;  292,600;  299,450
339,074;  300,017;  300,600;  274,450
339,156;  294,116;  308,600;  302,450
339,237;  322,507;  344,600;  320,450
339,319;  293,507;  298,600;  284,450
339,400;  304,207;  301,600;  313,450
339,482;  276,746;  291,600;  259,450
339,564;  311,757;  337,600;  315,450
339,645;  300,257;  283,600;  306,450
339,727;  286,876;  284,600;  278,450
339,808;  313,866;  306,600;  320,450
339,890;  297,406;  285,600;  277,450
339,971;  305,987;  318,600;  299,450
340,053;  332,866;  327,600;  339,450
340,134;  291,716;  287,600;  283,450
340,216;  312,466;  294,600;  302,450
340,297;  295,536;  330,600;  312,450
340,379;  312,246;  344,600;  301,450
340,460;  299,526;  275,600;  299,450
340,542;  292,167;  307,600;  263,450
340,623;  308,457;  306,600;  325,450
340,705;  290,686;  306,600;  262,450
340,786;  282,936;  299,600;  288,450
340,868;  299,536;  299,600;  313,450
340,949;  275,977;  279,600;  269,450
341,030;  321,126;  330,600;  312,450
341,112;  276,487;  256,600;  269,450
341,193;  267,547;  287,600;  248,450
341,274;  316,897;  325,600;  312,450
341,356;  316,906;  329,600;  300,450
341,437;  293,866;  292,600;  284,450
341,518;  303,846;  313,600;  322,450
341,600;  313,466;  321,600;  324,450
341,681;  321,846;  316,600;  308,450
341,762;  322,966;  316,600;  314,450
341,844;  282,897;  271,600;  280,450
341,925;  305,387;  304,600;  329,450
342,006;  314,096;  314,600;  322,450
342,087;  285,147;  291,600;  308,450
342,169;  301,507;  301,600;  297,450
342,250;  284,816;  303,600;  250,450
342,331;  290,647;  291,600;  268,450
342,412;  306,366;  304,600;  283,450
342,493;  283,596;  279,600;  266,450
342,575;  321,727;  298,600;  308,450
342,656;  313,457;  343,600;  319,450
342,737;  327,466;  331,600;  316,450
342,818;  299,227;  319,600;  291,450
342,899;  310,346;  309,600;  295,450
342,980;  303,586;  306,600;  302,450
343,061;  299,846;  297,600;  279,450
343,143;  311,436;  299,600;  310,450
343,224;  300,336;  297,600;  287,450
343,305;  294,507;  294,600;  273,450
343,386;  296,816;  290,600;  295,450
343,467;  298,237;  306,600;  295,450
343,548;  299,457;  307,600;  271,450
343,629;  311,086;  348,600;  311,450
343,710;  319,876;  354,600;  330,450
343,791;  321,246;  296,600;  295,450
343,872;  296,366;  314,600;  271,450
343,953;  312,096;  323,600;  303,450
344,034;  313,816;  307,600;  307,450
344,115;  302,036;  298,600;  295,450
344,196;  293,397;  295,600;  273,450
344,277;  291,177;  282,600;  299,450
344,358;  306,116;  279,600;  295,450
344,439;  288,466;  281,600;  287,450
344,520;  293,327;  310,600;  269,450
344,601;  305,996;  319,600;  332,450
344,681;  298,887;  312,600;  315,450
344,762;  280,276;  275,600;  257,450
344,843;  274,596;  300,600;  255,450
344,924;  305,827;  252,600;  290,450
345,005;  287,447;  269,600;  286,450
345,086;  302,397;  301,600;  289,450
345,167;  289,197;  299,600;  282,450
345,247;  319,917;  305,600;  327,450
345,328;  313,286;  287,600;  317,450
345,409;  303,406;  280,600;  307,450
345,490;  305,197;  314,600;  310,450
345,571;  299,947;  293,600;  295,450
345,651;  275,376;  260,600;  335,450
345,732;  302,596;  303,600;  286,450
345,813;  311,286;  285,600;  291,450
345,894;  277,767;  254,600;  279,450
345,974;  304,797;  346,600;  305,450
346,055;  290,017;  275,600;  291,450
346,136;  304,197;  311,600;  287,450
346,216;  321,246;  312,600;  345,450
346,297;  298,566;  294,600;  289,450
346,378;  289,697;  270,600;  300,450
346,458;  306,836;  299,600;  271,450
346,539;  298,086;  295,600;  315,450
346,620;  305,517;  301,600;  312,450
346,700;  278,677;  302,600;  258,450
346,781;  283,846;  252,600;  260,450
346,861;  303,316;  283,600;  301,450
346,942;  299,566;  273,600;  319,450
347,023;  314,366;  302,600;  306,450
347,103;  291,767;  296,600;  287,450
347,184;  290,427;  321,600;  294,450
347,264;  290,096;  289,600;  310,450
347,345;  284,436;  280,600;  281,450
347,425;  285,406;  270,600;  295,450
347,506;  279,197;  283,600;  283,450
347,586;  286,996;  258,600;  283,450
347,667;  304,126;  316,600;  299,450
347,747;  304,876;  307,600;  304,450
347,828;  293,626;  308,600;  271,450
347,908;  301,586;  307,600;  307,450
347,988;  295,746;  296,600;  251,450
348,069;  308,866;  295,600;  305,450
348,149;  299,716;  303,600;  276,450
348,230;  305,607;  297,600;  301,450
348,310;  278,716;  291,600;  301,450
348,390;  284,376;  285,600;  267,450
348,471;  299,137;  299,600;  270,450
348,551;  286,216;  289,600;  264,450
348,632;  283,116;  288,600;  278,450
348,712;  287,007;  281,600;  278,450
348,792;  328,237;  352,600;  333,450
348,873;  278,806;  293,600;  249,450
348,953;  288,897;  278,600;  330,450
349,033;  296,327;  285,600;  311,450
349,113;  280,147;  278,600;  277,450
349,194;  298,376;  289,600;  310,450
349,274;  298,517;  300,600;  310,450
349,354;  299,436;  288,600;  285,450
349,434;  299,536;  300,600;  299,450
349,515;  316,897;  310,600;  320,450
349,595;  302,346;  308,600;  287,450
349,675;  305,577;  289,600;  299,450
349,755;  297,007;  325,600;  280,450
349,835;  301,977;  305,600;  309,450
349,916;  293,327;  298,600;  284,450
349,996;  286,376;  287,600;  253,450
350,076;  306,806;  286,600;  315,450
350,156;  282,357;  272,600;  280,450
350,236;  309,806;  292,600;  316,450
350,316;  291,096;  296,600;  282,450
350,396;  301,957;  283,600;  306,450
350,476;  296,427;  308,600;  275,450
350,556;  294,936;  275,600;  290,450
350,637;  318,186;  331,600;  312,450
350,717;  287,047;  269,600;  287,450
350,797;  304,066;  307,600;  305,450
350,877;  288,056;  305,600;  323,450
350,957;  294,816;  285,600;  291,450
351,037;  298,786;  303,600;  298,450
351,117;  295,346;  304,600;  275,450
351,197;  298,917;  331,600;  302,450
351,277;  295,577;  328,600;  277,450
351,357;  307,086;  322,600;  293,450
351,437;  299,677;  299,600;  283,450
351,516;  314,466;  337,600;  283,450
351,596;  291,447;  291,600;  329,450
351,676;  284,827;  269,600;  284,450
351,756;  325,827;  308,600;  326,450
351,836;  309,626;  285,600;  329,450
351,916;  294,107;  324,600;  287,450
351,996;  299,026;  313,600;  318,450
352,076;  301,026;  288,600;  302,450
352,156;  313,556;  317,600;  297,450
352,235;  297,137;  310,600;  304,450
352,315;  307,417;  313,600;  339,450
352,395;  307,727;  306,600;  277,450
352,475;  314,156;  339,600;  287,450
352,555;  327,427;  362,600;  344,450
352,634;  320,366;  304,600;  344,450
352,714;  298,147;  310,600;  263,450
352,794;  352,216;  334,600;  364,450
352,874;  316,026;  335,600;  339,450
352,953;  332,977;  336,600;  318,450
353,033;  316,727;  317,600;  344,450
353,113;  329,297;  360,600;  341,450
353,193;  322,257;  314,600;  334,450
353,272;  328,447;  295,600;  329,450
353,352;  311,517;  303,600;  275,450
353,432;  341,647;  324,600;  344,450
353,511;  323,917;  323,600;  302,450
353,591;  358,436;  352,600;  347,450
353,671;  331,237;  335,600;  320,450
353,750;  327,596;  311,600;  311,450
353,830;  312,357;  319,600;  296,450
353,909;  337,707;  335,600;  341,450
353,989;  312,987;  309,600;  297,450
354,069;  318,727;  315,600;  318,450
354,148;  337,526;  341,600;  323,450
354,228;  313,096;  315,600;  300,450
354,307;  326,727;  313,600;  312,450
354,387;  314,237;  316,600;  326,450
354,466;  312,246;  319,600;  299,450
354,546;  333,966;  314,600;  347,450
354,625;  313,156;  341,600;  324,450
354,705;  314,427;  272,600;  330,450
354,784;  317,487;  301,600;  303,450
354,864;  315,207;  309,600;  305,450
354,943;  335,376;  340,600;  339,450
355,023;  303,616;  288,600;  314,450
355,102;  356,577;  337,600;  333,450
355,181;  313,306;  328,600;  329,450
355,261;  338,346;  314,600;  344,450
355,340;  304,656;  301,600;  307,450
355,420;  341,147;  325,600;  327,450
355,499;  317,457;  294,600;  326,450
355,578;  318,336;  321,600;  324,450
355,658;  329,066;  310,600;  346,450
355,737;  319,147;  312,600;  309,450
355,816;  323,207;  330,600;  333,450
355,896;  318,216;  300,600;  301,450
355,975;  306,566;  308,600;  294,450
356,054;  306,716;  316,600;  285,450
356,133;  287,786;  287,600;  314,450
356,213;  322,306;  318,600;  292,450
356,292;  302,677;  297,600;  276,450
356,371;  310,276;  331,600;  297,450
356,451;  322,857;  345,600;  294,450
356,530;  349,876;  357,600;  319,450
356,609;  310,126;  306,600;  286,450
356,688;  315,487;  314,600;  298,450
356,767;  304,227;  299,600;  290,450
356,846;  325,086;  346,600;  295,450
356,926;  341,207;  342,600;  361,450
357,005;  316,406;  332,600;  321,450
357,084;  300,897;  318,600;  321,450
357,163;  318,816;  335,600;  341,450
357,242;  316,906;  286,600;  337,450
357,321;  309,677;  322,600;  296,450
357,400;  317,457;  305,600;  310,450
357,479;  313,406;  336,600;  292,450
357,559;  323,406;  325,600;  314,450
357,638;  297,366;  312,600;  292,450
357,717;  311,996;  322,600;  304,450
357,796;  327,647;  348,600;  323,450
357,875;  311,207;  333,600;  316,450
357,954;  309,776;  312,600;  285,450
358,033;  315,096;  311,600;  278,450
358,112;  328,607;  302,600;  300,450
358,191;  310,147;  313,600;  289,450
358,270;  293,536;  266,600;  300,450
358,349;  318,286;  291,600;  324,450
358,428;  321,047;  321,600;  335,450
358,507;  322,387;  348,600;  306,450
358,585;  316,936;  318,600;  326,450
358,664;  328,897;  318,600;  340,450
358,743;  317,397;  293,600;  304,450
358,822;  331,427;  354,600;  329,450
358,901;  305,547;  275,600;  303,450
358,980;  305,056;  308,600;  299,450
359,059;  327,036;  326,600;  326,450
359,138;  325,836;  308,600;  324,450
359,216;  323,757;  320,600;  314,450
359,295;  305,447;  325,600;  329,450
359,374;  331,366;  335,600;  301,450
359,453;  315,267;  340,600;  315,450
359,532;  302,257;  307,600;  310,450
359,610;  315,436;  315,600;  307,450
359,689;  328,316;  324,600;  330,450
359,768;  313,147;  305,600;  294,450
359,847;  301,876;  313,600;  287,450
359,925;  302,406;  303,600;  315,450
360,004;  296,496;  295,600;  289,450
360,083;  312,936;  299,600;  319,450
360,161;  302,637;  314,600;  285,450
360,240;  285,827;  272,600;  289,450
360,319;  314,007;  323,600;  309,450
360,397;  323,186;  313,600;  320,450
360,476;  319,207;  291,600;  325,450
360,555;  342,126;  334,600;  340,450
360,633;  303,007;  287,600;  300,450
360,712;  305,417;  299,600;  264,450
360,790;  328,667;  314,600;  320,450
360,869;  310,366;  297,600;  296,450
360,948;  318,616;  278,600;  334,450
361,026;  295,927;  321,600;  276,450
361,105;  308,866;  305,600;  290,450
361,183;  315,186;  294,600;  286,450
361,262;  300,167;  300,600;  280,450
361,340;  304,286;  318,600;  297,450
361,419;  283,727;  282,600;  250,450
361,497;  338,626;  300,600;  335,450
361,576;  320,457;  292,600;  315,450
361,654;  344,727;  361,600;  322,450
361,733;  288,167;  320,600;  300,450
361,811;  326,477;  320,600;  311,450
361,890;  289,126;  267,600;  289,450
361,968;  309,346;  269,600;  303,450
362,046;  330,966;  334,600;  321,450
362,125;  336,447;  353,600;  326,450
362,203;  312,096;  297,600;  287,450
362,282;  330,876;  319,600;  338,450
362,360;  318,036;  296,600;  307,450
362,438;  314,327;  310,600;  302,450
362,517;  356,917;  346,600;  347,450
362,595;  337,637;  312,600;  351,450
362,673;  333,957;  323,600;  317,450
362,752;  322,716;  349,600;  327,450
362,830;  338,216;  338,600;  349,450
362,908;  318,906;  310,600;  307,450
362,986;  331,336;  335,600;  315,450
363,065;  325,737;  313,600;  344,450
363,143;  360,637;  354,600;  367,450
363,221;  315,077;  302,600;  288,450
363,299;  313,827;  304,600;  309,450
363,378;  324,816;  297,600;  335,450
363,456;  302,857;  286,600;  316,450
363,534;  326,737;  318,600;  323,450
363,612;  329,116;  320,600;  312,450
363,690;  337,197;  319,600;  344,450
363,769;  356,366;  340,600;  345,450
363,847;  330,857;  308,600;  356,450
363,925;  306,767;  282,600;  303,450
364,003;  352,246;  343,600;  348,450
364,081;  340,306;  323,600;  338,450
364,159;  336,047;  325,600;  330,450
364,237;  344,936;  351,600;  326,450
364,315;  326,457;  306,600;  311,450
364,393;  360,466;  363,600;  340,450
364,471;  341,637;  345,600;  315,450
364,549;  352,397;  344,600;  337,450
364,627;  354,007;  339,600;  321,450
364,705;  360,017;  344,600;  299,450
364,783;  430,276;  417,600;  294,450
364,861; 1008,446; 1050,600;  311,450
364,939; 3602,316; 3619,600;  304,450
365,017;  782,386;  723,600;  298,450
365,095;  369,477;  341,600;  327,450
365,173;  376,096;  398,600;  335,450
365,251;  378,586;  356,600;  345,450
365,329;  528,596;  527,600;  344,450
365,407; 1178,217; 1155,600;  315,450
365,485;  461,846;  464,600;  377,450
365,563;  360,276;  354,600;  339,450
365,641;  337,866;  327,600;  316,450
365,719;  341,096;  361,600;  314,450
365,796;  337,947;  329,600;  309,450
365,874;  355,996;  329,600;  354,450
365,952;  318,066;  334,600;  297,450
366,030;  341,746;  311,600;  318,450
366,108;  358,697;  336,600;  325,450
366,185;  626,096;  644,600;  330,450
366,263;  891,417;  880,600;  333,450
366,341;  378,496;  362,600;  310,450
366,419;  337,177;  335,600;  319,450
366,496;  348,156;  347,600;  336,450
366,574;  328,596;  299,600;  321,450
366,652;  352,897;  381,600;  324,450
366,730;  366,626;  336,600;  375,450
366,807;  335,767;  317,600;  335,450
366,885;  325,116;  315,600;  340,450
366,963;  329,297;  305,600;  332,450
367,040;  350,397;  348,600;  348,450
367,118;  326,056;  315,600;  299,450
367,196;  342,096;  322,600;  355,450
367,273;  333,197;  331,600;  352,450
367,351;  325,327;  314,600;  320,450
367,428;  358,507;  351,600;  360,450
367,506;  335,086;  361,600;  305,450
367,584;  359,667;  352,600;  377,450
367,661;  340,846;  329,600;  332,450
367,739;  329,517;  328,600;  328,450
367,816;  323,257;  343,600;  292,450
367,894;  340,086;  368,600;  312,450
367,971;  332,746;  309,600;  328,450
368,049;  351,197;  376,600;  316,450
368,126;  315,536;  329,600;  318,450
368,204;  348,477;  333,600;  342,450
368,281;  353,197;  375,600;  360,450
368,359;  348,616;  352,600;  332,450
368,436;  344,126;  349,600;  336,450
368,514;  348,167;  344,600;  337,450
368,591;  344,436;  344,600;  347,450
368,668;  346,167;  375,600;  336,450
368,746;  356,107;  387,600;  352,450
368,823;  342,816;  338,600;  380,450
368,901;  338,677;  325,600;  328,450
368,978;  356,936;  329,600;  311,450
369,055;  342,806;  339,600;  332,450
369,133;  365,346;  371,600;  352,450
369,210;  335,306;  328,600;  366,450
369,287;  367,797;  364,600;  366,450
369,365;  371,077;  380,600;  367,450
369,442;  350,286;  347,600;  350,450
369,519;  309,007;  321,600;  298,450
369,596;  368,816;  359,600;  339,450
369,674;  334,686;  327,600;  283,450
369,751;  364,417;  337,600;  371,450
369,828;  352,647;  351,600;  337,450
369,905;  353,526;  358,600;  377,450
369,983;  328,816;  305,600;  327,450
370,060;  330,836;  323,600;  301,450
370,137;  369,767;  394,600;  401,450
370,214;  338,607;  321,600;  374,450
370,291;  348,517;  350,600;  340,450
370,368;  345,797;  356,600;  383,450
370,446;  334,276;  301,600;  350,450
370,523;  332,697;  360,600;  316,450
370,600;  352,987;  368,600;  319,450
370,677;  343,686;  348,600;  332,450
370,754;  340,806;  343,600;  331,450
370,831;  341,547;  352,600;  343,450
370,908;  369,466;  347,600;  374,450
370,985;  321,246;  333,600;  281,450
371,062;  344,207;  341,600;  344,450
371,139;  359,457;  361,600;  363,450
371,216;  355,207;  351,600;  347,450
371,293;  351,957;  329,600;  359,450
371,370;  327,596;  322,600;  314,450
371,447;  354,147;  346,600;  342,450
371,524;  375,647;  346,600;  357,450
371,601;  370,177;  371,600;  341,450
371,678;  373,596;  350,600;  355,450
371,755;  347,487;  366,600;  335,450
371,832;  371,077;  370,600;  375,450
371,909;  340,507;  370,600;  318,450
371,986;  378,776;  371,600;  394,450
372,063;  343,126;  324,600;  329,450
372,140;  354,827;  342,600;  359,450
372,216;  359,536;  356,600;  331,450
372,293;  343,767;  310,600;  347,450
372,370;  371,327;  375,600;  357,450
372,447;  356,927;  329,600;  372,450
372,524;  346,737;  350,600;  371,450
372,601;  352,577;  369,600;  321,450
372,677;  339,876;  344,600;  333,450
372,754;  349,697;  355,600;  360,450
372,831;  356,887;  356,600;  354,450
372,908;  366,776;  380,600;  385,450
372,984;  352,366;  362,600;  356,450
373,061;  339,536;  317,600;  334,450
373,138;  350,637;  367,600;  366,450
373,215;  340,767;  329,600;  317,450
373,291;  347,496;  347,600;  356,450
373,368;  350,866;  378,600;  362,450
373,445;  343,977;  374,600;  345,450
373,521;  350,477;  355,600;  341,450
373,598;  337,507;  354,600;  314,450
373,675;  331,846;  335,600;  358,450
373,751;  345,366;  336,600;  357,450
373,828;  341,257;  338,600;  346,450
373,904;  387,556;  409,600;  394,450
373,981;  327,857;  340,600;  337,450
374,057;  352,977;  343,600;  341,450
374,134;  330,647;  339,600;  316,450
374,211;  346,887;  330,600;  339,450
374,287;  333,707;  336,600;  339,450
374,364;  361,887;  379,600;  370,450
374,440;  317,056;  279,600;  284,450
374,517;  363,947;  367,600;  360,450
374,593;  321,816;  326,600;  299,450
374,670;  341,827;  335,600;  311,450
374,746;  345,667;  347,600;  339,450
374,823;  367,056;  389,600;  364,450
374,899;  364,737;  353,600;  394,450
374,975;  336,017;  336,600;  333,450
375,052;  324,406;  327,600;  327,450
375,128;  325,746;  281,600;  339,450
375,205;  353,957;  346,600;  378,450
375,281;  334,776;  294,600;  331,450
375,357;  359,667;  371,600;  352,450
375,434;  332,126;  313,600;  355,450
375,510;  347,267;  354,600;  323,450
375,586;  344,707;  356,600;  351,450
375,663;  319,047;  314,600;  307,450
375,739;  351,836;  355,600;  380,450
375,815;  339,786;  340,600;  317,450
375,892;  344,246;  340,600;  341,450
375,968;  335,167;  313,600;  325,450
376,044;  335,897;  370,600;  333,450
376,120;  337,866;  311,600;  364,450
376,197;  347,957;  361,600;  328,450
376,273;  338,186;  347,600;  334,450
376,349;  377,306;  386,600;  368,450
376,425;  360,776;  378,600;  336,450
376,501;  345,556;  329,600;  348,450
376,578;  360,066;  332,600;  426,450
376,654;  377,767;  393,600;  365,450
376,730;  357,827;  340,600;  352,450
376,806;  373,767;  346,600;  382,450
376,882;  372,177;  376,600;  332,450
376,958;  374,586;  367,600;  347,450
377,034;  320,197;  320,600;  296,450
377,111;  366,827;  393,600;  358,450
377,187;  388,126;  410,600;  383,450
377,263;  381,697;  397,600;  372,450
377,339;  342,677;  341,600;  319,450
377,415;  362,507;  339,600;  356,450
377,491;  347,197;  362,600;  325,450
377,567;  359,556;  340,600;  369,450
377,643;  377,547;  376,600;  362,450
377,719;  365,306;  368,600;  351,450
377,795;  348,316;  313,600;  350,450
377,871;  365,927;  366,600;  386,450
377,947;  351,227;  343,600;  352,450
378,023;  345,237;  355,600;  339,450
378,099;  346,237;  325,600;  367,450
378,174;  369,487;  364,600;  365,450
378,250;  359,477;  372,600;  389,450
378,326;  367,427;  369,600;  382,450
378,402;  359,246;  359,600;  343,450
378,478;  365,857;  340,600;  355,450
378,554;  372,707;  347,600;  374,450
378,630;  364,616;  369,600;  336,450
378,706;  356,227;  364,600;  321,450
378,781;  393,167;  387,600;  385,450
378,857;  364,056;  359,600;  347,450
378,933;  362,577;  359,600;  335,450
379,009;  349,047;  346,600;  342,450
379,085;  391,917;  419,600;  384,450
379,160;  375,017;  381,600;  366,450
379,236;  375,116;  359,600;  361,450
379,312;  359,436;  337,600;  365,450
379,387;  354,487;  372,600;  349,450
379,463;  363,936;  355,600;  344,450
379,539;  372,577;  408,600;  387,450
379,615;  355,257;  337,600;  364,450
379,690;  395,737;  420,600;  410,450
379,766;  376,466;  389,600;  370,450
379,842;  388,096;  385,600;  366,450
379,917;  380,957;  389,600;  369,450
379,993;  367,186;  370,600;  358,450
380,068;  357,436;  341,600;  349,450
380,144;  380,677;  398,600;  393,450
380,220;  380,316;  388,600;  391,450
380,295;  350,047;  356,600;  356,450
380,371;  360,927;  358,600;  361,450
380,446;  376,776;  418,600;  376,450
380,522;  346,716;  340,600;  360,450
380,597;  360,286;  377,600;  349,450
380,673;  395,397;  395,600;  384,450
380,748;  356,177;  338,600;  344,450
380,824;  365,797;  364,600;  362,450
380,899;  387,566;  371,600;  364,450
380,975;  361,797;  388,600;  402,450
381,050;  350,026;  363,600;  336,450
381,126;  369,496;  370,600;  362,450
381,201;  404,596;  407,600;  405,450
381,277;  369,827;  367,600;  390,450
381,352;  385,716;  389,600;  377,450
381,427;  374,746;  359,600;  370,450
381,503;  378,857;  394,600;  377,450
381,578;  362,556;  363,600;  360,450
381,653;  369,397;  381,600;  387,450
381,729;  359,096;  346,600;  360,450
381,804;  367,077;  373,600;  375,450
381,879;  380,466;  380,600;  366,450
381,955;  355,186;  343,600;  346,450
382,030;  356,047;  346,600;  339,450
382,105;  372,836;  372,600;  372,450
382,181;  367,767;  382,600;  367,450
382,256;  371,577;  373,600;  383,450
382,331;  372,357;  371,600;  375,450
382,406;  349,816;  368,600;  343,450
382,482;  357,746;  371,600;  380,450
382,557;  363,066;  362,600;  335,450
382,632;  370,056;  364,600;  365,450
382,707;  361,727;  393,600;  349,450
382,782;  368,626;  395,600;  385,450
382,857;  358,957;  373,600;  356,450
382,933;  347,737;  354,600;  349,450
383,008;  341,116;  325,600;  336,450
383,083;  376,466;  382,600;  360,450
383,158;  376,686;  375,600;  368,450
383,233;  359,876;  368,600;  362,450
383,308;  363,267;  360,600;  326,450
383,383;  388,397;  394,600;  390,450
383,458;  356,897;  344,600;  340,450
383,533;  341,686;  331,600;  334,450
383,608;  390,626;  367,600;  381,450
383,683;  382,647;  381,600;  367,450
383,758;  380,147;  398,600;  353,450
383,833;  369,297;  343,600;  350,450
383,908;  340,487;  321,600;  367,450
383,983;  346,757;  365,600;  328,450
384,058;  357,806;  340,600;  383,450
384,133;  363,887;  372,600;  376,450
384,208;  375,947;  395,600;  375,450
384,283;  347,757;  362,600;  321,450
384,358;  384,216;  392,600;  390,450
384,433;  355,417;  347,600;  341,450
384,508;  370,936;  339,600;  338,450
384,583;  372,406;  337,600;  355,450
384,658;  369,607;  352,600;  366,450
384,732;  336,447;  329,600;  319,450
384,807;  362,786;  347,600;  366,450
384,882;  372,297;  391,600;  349,450
384,957;  372,017;  348,600;  345,450
385,032;  373,447;  383,600;  373,450
385,106;  365,977;  342,600;  369,450
385,181;  355,857;  353,600;  359,450
385,256;  364,566;  367,600;  336,450
385,331;  368,107;  375,600;  364,450
385,405;  379,257;  383,600;  400,450
385,480;  364,086;  362,600;  372,450
385,555;  397,417;  402,600;  399,450
385,630;  390,107;  369,600;  370,450
385,704;  372,306;  353,600;  390,450
385,779;  361,556;  363,600;  368,450
385,854;  368,866;  364,600;  380,450
385,928;  363,086;  348,600;  365,450
386,003;  401,667;  390,600;  397,450
386,078;  371,966;  374,600;  369,450
386,152;  400,697;  391,600;  412,450
386,227;  359,147;  347,600;  354,450
386,301;  377,707;  389,600;  348,450
386,376;  354,746;  352,600;  346,450
386,450;  379,996;  356,600;  374,450
386,525;  375,566;  357,600;  376,450
386,600;  384,227;  367,600;  381,450
386,674;  366,637;  374,600;  364,450
386,749;  378,816;  395,600;  359,450
386,823;  379,737;  363,600;  377,450
386,898;  383,276;  386,600;  374,450
386,972;  384,487;  383,600;  354,450
387,047;  372,616;  368,600;  364,450
387,121;  379,857;  375,600;  363,450
387,195;  355,227;  359,600;  352,450
387,270;  386,927;  384,600;  385,450
387,344;  405,677;  429,600;  393,450
387,419;  386,797;  367,600;  412,450
387,493;  379,876;  371,600;  377,450
387,567;  356,077;  351,600;  336,450
387,642;  403,746;  383,600;  402,450
387,716;  367,417;  368,600;  378,450
387,790;  369,507;  337,600;  366,450
387,865;  373,536;  351,600;  364,450
387,939;  403,857;  405,600;  406,450
388,013;  386,586;  377,600;  417,450
388,088;  368,526;  361,600;  363,450
388,162;  369,257;  366,600;  355,450
388,236;  373,116;  381,600;  416,450
388,310;  361,737;  368,600;  361,450
388,385;  394,626;  324,600;  400,450
388,459;  377,887;  362,600;  379,450
388,533;  359,677;  378,600;  365,450
388,607;  363,827;  374,600;  378,450
388,682;  374,376;  369,600;  394,450
388,756;  359,977;  375,600;  378,450
388,830;  386,816;  378,600;  413,450
388,904;  380,806;  382,600;  382,450
388,978;  368,096;  368,600;  361,450
389,052;  378,487;  390,600;  343,450
389,126;  370,927;  353,600;  387,450
389,200;  372,197;  376,600;  362,450
389,275;  367,007;  382,600;  389,450
389,349;  373,237;  405,600;  380,450
389,423;  365,607;  380,600;  369,450
389,497;  380,167;  426,600;  377,450
389,571;  367,156;  391,600;  375,450
389,645;  375,237;  378,600;  388,450
389,719;  367,887;  384,600;  388,450
389,793;  345,336;  341,600;  322,450
389,867;  400,647;  410,600;  386,450
389,941;  371,487;  367,600;  369,450
390,015;  364,707;  348,600;  372,450
390,089;  360,186;  369,600;  344,450
390,163;  372,436;  368,600;  375,450
390,237;  376,297;  356,600;  361,450
390,310;  377,987;  393,600;  366,450
390,384;  380,137;  383,600;  344,450
390,458;  402,366;  414,600;  432,450
390,532;  385,586;  401,600;  395,450
390,606;  366,197;  361,600;  328,450
390,680;  368,727;  354,600;  373,450
390,754;  362,517;  373,600;  342,450
390,827;  391,017;  382,600;  388,450
390,901;  393,737;  362,600;  377,450
390,975;  369,227;  366,600;  368,450
391,049;  363,207;  374,600;  392,450
391,123;  359,336;  342,600;  367,450
391,196;  362,737;  344,600;  368,450
391,270;  377,447;  372,600;  366,450
391,344;  357,697;  384,600;  374,450
391,418;  369,156;  368,600;  366,450
391,491;  358,126;  362,600;  365,450
391,565;  362,496;  341,600;  346,450
391,639;  392,806;  379,600;  381,450
391,712;  383,276;  373,600;  385,450
391,786;  383,667;  401,600;  429,450
391,860;  369,727;  354,600;  354,450
391,933;  369,257;  366,600;  333,450
392,007;  374,656;  393,600;  364,450
392,081;  402,286;  404,600;  366,450
392,154;  379,656;  366,600;  394,450
392,228;  391,276;  392,600;  387,450
392,301;  380,316;  366,600;  402,450
392,375;  390,727;  394,600;  406,450
392,448;  383,417;  397,600;  375,450
392,522;  373,306;  382,600;  383,450
392,595;  372,207;  389,600;  365,450
392,669;  380,066;  386,600;  367,450
392,742;  392,616;  378,600;  401,450
392,816;  397,547;  376,600;  383,450
392,889;  395,637;  392,600;  401,450
392,963;  405,936;  400,600;  382,450
393,036;  384,357;  366,600;  401,450
393,110;  392,376;  388,600;  376,450
393,183;  404,857;  407,600;  399,450
393,257;  416,987;  437,600;  408,450
393,330;  367,007;  373,600;  391,450
393,403;  391,246;  410,600;  372,450
393,477;  358,156;  347,600;  364,450
393,550;  390,977;  413,600;  387,450
393,623;  385,746;  374,600;  402,450
393,697;  405,077;  404,600;  411,450
393,770;  381,577;  386,600;  364,450
393,843;  406,257;  419,600;  412,450
393,917;  394,047;  400,600;  407,450
393,990;  411,927;  378,600;  395,450
394,063;  391,397;  403,600;  375,450
394,136;  389,406;  390,600;  390,450
394,210;  392,297;  393,600;  380,450
394,283;  403,887;  385,600;  395,450
394,356;  396,066;  410,600;  373,450
394,429;  396,977;  399,600;  357,450
394,502;  383,686;  404,600;  373,450
394,576;  412,237;  416,600;  404,450
394,649;  379,806;  376,600;  381,450
394,722;  401,677;  390,600;  390,450
394,795;  407,517;  413,600;  406,450
394,868;  382,746;  369,600;  390,450
394,941;  372,667;  371,600;  368,450
395,014;  416,286;  419,600;  416,450
395,088;  398,267;  404,600;  391,450
395,161;  393,866;  402,600;  399,450
395,234;  405,616;  390,600;  397,450
395,307;  402,336;  413,600;  388,450
395,380;  383,056;  393,600;  392,450
395,453;  436,727;  439,600;  425,450
395,526;  408,547;  430,600;  407,450
395,599;  431,906;  422,600;  432,450
395,672;  394,077;  378,600;  408,450
395,745;  414,577;  400,600;  390,450
395,818;  374,507;  385,600;  376,450
395,891;  387,267;  408,600;  379,450
395,964;  412,137;  398,600;  436,450
396,036;  385,376;  400,600;  390,450
396,109;  393,517;  399,600;  381,450
396,182;  398,047;  392,600;  382,450
396,255;  402,126;  417,600;  383,450
396,328;  409,866;  412,600;  432,450
396,401;  366,056;  363,600;  381,450
396,474;  382,477;  399,600;  360,450
396,547;  401,066;  411,600;  417,450
396,619;  391,007;  384,600;  393,450
396,692;  409,697;  371,600;  354,450
396,765;  368,336;  375,600;  376,450
396,838;  389,207;  367,600;  390,450
396,911;  370,487;  363,600;  352,450
396,983;  392,147;  385,600;  396,450
397,056;  371,987;  375,600;  367,450
397,129;  388,866;  369,600;  368,450
397,201;  387,346;  413,600;  395,450
397,274;  390,707;  379,600;  382,450
397,347;  359,026;  364,600;  378,450
397,420;  383,737;  373,600;  379,450
397,492;  387,066;  404,600;  380,450
397,565;  376,197;  372,600;  365,450
397,637;  366,727;  371,600;  361,450
397,710;  347,466;  349,600;  341,450
397,783;  409,066;  444,600;  401,450
397,855;  344,906;  363,600;  346,450
397,928;  369,186;  381,600;  330,450
398,000;  393,286;  369,600;  384,450
398,073;  385,827;  376,600;  372,450
398,146;  376,776;  365,600;  358,450
398,218;  393,906;  417,600;  363,450
398,291;  385,156;  398,600;  385,450
398,363;  378,647;  370,600;  358,450
398,436;  367,857;  369,600;  360,450
398,508;  381,346;  378,600;  369,450
398,581;  377,827;  368,600;  367,450
398,653;  369,996;  318,600;  382,450
398,726;  376,257;  376,600;  371,450
398,798;  382,957;  390,600;  376,450
398,870;  390,776;  374,600;  374,450
398,943;  364,857;  371,600;  357,450
399,015;  362,767;  362,600;  383,450
399,088;  383,096;  377,600;  373,450
399,160;  365,167;  370,600;  348,450
399,232;  348,487;  332,600;  349,450
399,305;  367,156;  379,600;  362,450
399,377;  379,366;  350,600;  343,450
399,449;  381,816;  398,600;  388,450
399,522;  423,556;  442,600;  416,450
399,594;  363,036;  359,600;  346,450
399,666;  384,237;  393,600;  361,450
399,738;  370,667;  378,600;  375,450
399,811;  376,257;  370,600;  388,450
399,883;  387,667;  392,600;  378,450
399,955;  392,147;  429,600;  331,450
400,027;  345,487;  342,600;  364,450
400,100;  404,686;  402,600;  427,450
400,172;  348,816;  360,600;  354,450
400,244;  374,457;  369,600;  361,450
400,316;  391,906;  396,600;  381,450
400,388;  386,767;  408,600;  368,450
400,460;  359,536;  350,600;  359,450
400,532;  346,577;  329,600;  337,450
400,605;  379,767;  378,600;  368,450
400,677;  401,096;  389,600;  380,450
400,749;  395,007;  403,600;  406,450
400,821;  382,857;  384,600;  385,450
400,893;  375,376;  364,600;  384,450
400,965;  389,936;  390,600;  380,450
401,037;  385,427;  376,600;  402,450
401,109;  369,357;  363,600;  365,450
401,181;  378,327;  383,600;  398,450

