p
Integration time [ms]:   0,150
Averaging Nr. [scans]: 1
Smoothing Nr. [pixels]: 0
Data measured with spectrometer [name]: 7416147SP
Wave   ;Sample   ;Dark     ;Reference
[nm]   ;[counts] ;[counts] ;[counts] 

230,218;  291,200;  284,600;  274,450
230,311;  298,200;  306,600;  296,450
230,404;  325,200;  298,600;  326,450
230,497;  318,200;  295,600;  309,450
230,591;  349,200;  342,600;  328,450
230,684;  323,200;  317,600;  333,450
230,777;  309,200;  318,600;  312,450
230,870;  302,200;  330,600;  321,450
230,964;  295,200;  321,600;  306,450
231,057;  338,200;  306,600;  332,450
231,150;  343,200;  320,600;  304,450
231,243;  320,200;  310,600;  310,450
231,336;  299,200;  334,600;  326,450
231,430;  311,200;  320,600;  279,450
231,523;  307,200;  346,600;  304,450
231,616;  319,200;  297,600;  290,450
231,709;  316,200;  328,600;  315,450
231,802;  311,200;  280,600;  295,450
231,895;  313,200;  293,600;  313,450
231,988;  325,200;  312,600;  320,450
232,082;  289,200;  316,600;  281,450
232,175;  316,200;  289,600;  279,450
232,268;  279,200;  319,600;  301,450
232,361;  300,200;  288,600;  264,450
232,454;  288,200;  297,600;  320,450
232,547;  338,200;  333,600;  272,450
232,640;  308,200;  314,600;  287,450
232,733;  321,200;  297,600;  300,450
232,826;  304,200;  303,600;  270,450
232,919;  304,200;  318,600;  294,450
233,012;  303,200;  322,600;  292,450
233,105;  296,200;  318,600;  283,450
233,199;  298,200;  324,600;  298,450
233,292;  300,200;  293,600;  307,450
233,385;  266,200;  262,600;  233,450
233,478;  291,200;  302,600;  272,450
233,571;  312,200;  314,600;  293,450
233,664;  295,200;  341,600;  283,450
233,757;  304,200;  254,600;  231,450
233,850;  267,200;  272,600;  248,450
233,943;  301,200;  298,600;  272,450
234,035;  302,200;  318,600;  292,450
234,128;  281,200;  282,600;  265,450
234,221;  302,200;  310,600;  293,450
234,314;  317,200;  333,600;  318,450
234,407;  314,200;  338,600;  286,450
234,500;  303,200;  286,600;  280,450
234,593;  318,200;  280,600;  290,450
234,686;  307,200;  276,600;  256,450
234,779;  294,200;  270,600;  275,450
234,872;  297,200;  276,600;  261,450
234,965;  315,200;  298,600;  286,450
235,058;  305,200;  269,600;  263,450
235,150;  315,200;  311,600;  286,450
235,243;  293,200;  280,600;  311,450
235,336;  332,200;  317,600;  296,450
235,429;  289,200;  258,600;  241,450
235,522;  346,200;  352,600;  293,450
235,615;  259,200;  309,600;  253,450
235,707;  294,200;  289,600;  277,450
235,800;  280,200;  302,600;  268,450
235,893;  292,200;  328,600;  262,450
235,986;  281,200;  305,600;  312,450
236,079;  285,200;  310,600;  308,450
236,171;  273,200;  272,600;  270,450
236,264;  292,200;  310,600;  282,450
236,357;  292,200;  289,600;  297,450
236,450;  320,200;  314,600;  308,450
236,542;  274,200;  286,600;  258,450
236,635;  320,200;  319,600;  287,450
236,728;  310,200;  276,600;  273,450
236,821;  330,200;  270,600;  268,450
236,913;  284,200;  326,600;  268,450
237,006;  299,200;  300,600;  257,450
237,099;  272,200;  289,600;  271,450
237,191;  301,200;  345,600;  288,450
237,284;  269,200;  256,600;  282,450
237,377;  274,200;  294,600;  312,450
237,470;  293,200;  291,600;  256,450
237,562;  296,200;  266,600;  261,450
237,655;  360,200;  342,600;  294,450
237,747;  296,200;  325,600;  263,450
237,840;  333,200;  292,600;  302,450
237,933;  308,200;  327,600;  284,450
238,025;  300,200;  338,600;  306,450
238,118;  306,200;  306,600;  287,450
238,211;  262,200;  282,600;  227,450
238,303;  274,200;  277,600;  273,450
238,396;  250,200;  289,600;  270,450
238,488;  290,200;  300,600;  281,450
238,581;  309,200;  306,600;  235,450
238,673;  295,200;  304,600;  273,450
238,766;  253,200;  268,600;  282,450
238,859;  303,200;  282,600;  277,450
238,951;  279,200;  295,600;  280,450
239,044;  294,200;  270,600;  283,450
239,136;  281,200;  269,600;  284,450
239,229;  322,200;  297,600;  291,450
239,321;  281,200;  262,600;  248,450
239,414;  285,200;  289,600;  288,450
239,506;  311,200;  280,600;  267,450
239,599;  350,200;  352,600;  292,450
239,691;  285,200;  306,600;  269,450
239,784;  310,200;  296,600;  288,450
239,876;  282,200;  280,600;  288,450
239,969;  295,200;  287,600;  281,450
240,061;  299,200;  277,600;  262,450
240,153;  292,200;  260,600;  278,450
240,246;  281,200;  295,600;  292,450
240,338;  329,200;  309,600;  324,450
240,431;  271,200;  277,600;  282,450
240,523;  227,200;  300,600;  237,450
240,615;  304,200;  293,600;  321,450
240,708;  326,200;  355,600;  292,450
240,800;  296,200;  302,600;  288,450
240,893;  309,200;  274,600;  261,450
240,985;  291,200;  321,600;  270,450
241,077;  264,200;  268,600;  262,450
241,170;  297,200;  313,600;  286,450
241,262;  306,200;  284,600;  284,450
241,354;  248,200;  246,600;  244,450
241,447;  267,200;  286,600;  271,450
241,539;  282,200;  295,600;  247,450
241,631;  320,200;  312,600;  279,450
241,724;  255,200;  261,600;  246,450
241,816;  318,200;  258,600;  264,450
241,908;  263,200;  278,600;  263,450
242,000;  285,200;  283,600;  263,450
242,093;  310,200;  303,600;  261,450
242,185;  289,200;  306,600;  269,450
242,277;  281,200;  282,600;  242,450
242,369;  305,200;  278,600;  269,450
242,462;  288,200;  271,600;  247,450
242,554;  277,200;  253,600;  266,450
242,646;  294,200;  282,600;  270,450
242,738;  346,200;  320,600;  281,450
242,830;  292,200;  292,600;  230,450
242,923;  298,200;  309,600;  303,450
243,015;  266,200;  288,600;  269,450
243,107;  323,200;  280,600;  253,450
243,199;  271,200;  309,600;  300,450
243,291;  294,200;  319,600;  253,450
243,383;  251,200;  240,600;  273,450
243,476;  241,200;  257,600;  282,450
243,568;  291,200;  293,600;  284,450
243,660;  291,200;  260,600;  268,450
243,752;  267,200;  305,600;  270,450
243,844;  299,200;  299,600;  284,450
243,936;  308,200;  316,600;  299,450
244,028;  273,200;  332,600;  290,450
244,120;  267,200;  267,600;  230,450
244,212;  313,200;  298,600;  289,450
244,305;  251,200;  267,600;  270,450
244,397;  304,200;  315,600;  267,450
244,489;  326,200;  303,600;  285,450
244,581;  315,200;  301,600;  279,450
244,673;  308,200;  286,600;  252,450
244,765;  281,200;  277,600;  293,450
244,857;  262,200;  303,600;  251,450
244,949;  279,200;  305,600;  282,450
245,041;  219,200;  250,600;  223,450
245,133;  320,200;  294,600;  292,450
245,225;  270,200;  258,600;  248,450
245,317;  283,200;  253,600;  267,450
245,409;  303,200;  282,600;  263,450
245,501;  285,200;  286,600;  265,450
245,593;  262,200;  328,600;  278,450
245,685;  295,200;  330,600;  286,450
245,776;  281,200;  298,600;  267,450
245,868;  267,200;  308,600;  263,450
245,960;  260,200;  242,600;  252,450
246,052;  305,200;  291,600;  307,450
246,144;  295,200;  282,600;  285,450
246,236;  302,200;  296,600;  257,450
246,328;  325,200;  285,600;  287,450
246,420;  284,200;  282,600;  270,450
246,512;  292,200;  303,600;  295,450
246,604;  267,200;  280,600;  278,450
246,695;  263,200;  275,600;  268,450
246,787;  296,200;  288,600;  299,450
246,879;  294,200;  296,600;  275,450
246,971;  304,200;  305,600;  285,450
247,063;  293,200;  281,600;  253,450
247,155;  293,200;  295,600;  240,450
247,246;  294,200;  305,600;  285,450
247,338;  315,200;  297,600;  287,450
247,430;  284,200;  298,600;  312,450
247,522;  316,200;  294,600;  294,450
247,613;  310,200;  287,600;  278,450
247,705;  299,200;  302,600;  286,450
247,797;  323,200;  322,600;  301,450
247,889;  322,200;  294,600;  286,450
247,980;  300,200;  318,600;  273,450
248,072;  323,200;  315,600;  275,450
248,164;  323,200;  368,600;  297,450
248,256;  277,200;  280,600;  302,450
248,347;  299,200;  312,600;  275,450
248,439;  312,200;  302,600;  260,450
248,531;  289,200;  301,600;  297,450
248,622;  313,200;  315,600;  318,450
248,714;  320,200;  303,600;  257,450
248,806;  303,200;  301,600;  287,450
248,897;  302,200;  266,600;  290,450
248,989;  264,200;  260,600;  246,450
249,081;  290,200;  291,600;  305,450
249,172;  328,200;  289,600;  264,450
249,264;  269,200;  310,600;  303,450
249,356;  301,200;  274,600;  253,450
249,447;  282,200;  287,600;  283,450
249,539;  261,200;  289,600;  288,450
249,630;  310,200;  296,600;  286,450
249,722;  328,200;  310,600;  305,450
249,813;  308,200;  302,600;  256,450
249,905;  299,200;  319,600;  291,450
249,997;  276,200;  270,600;  248,450
250,088;  287,200;  295,600;  285,450
250,180;  294,200;  280,600;  288,450
250,271;  286,200;  296,600;  268,450
250,363;  347,200;  329,600;  307,450
250,454;  316,200;  268,600;  238,450
250,546;  295,200;  271,600;  272,450
250,637;  285,200;  285,600;  242,450
250,729;  299,200;  267,600;  250,450
250,820;  269,200;  306,600;  297,450
250,912;  264,200;  299,600;  243,450
251,003;  283,200;  285,600;  296,450
251,095;  310,200;  296,600;  273,450
251,186;  297,200;  269,600;  253,450
251,277;  306,200;  276,600;  290,450
251,369;  324,200;  295,600;  275,450
251,460;  293,200;  272,600;  272,450
251,552;  299,200;  293,600;  292,450
251,643;  292,200;  292,600;  276,450
251,735;  313,200;  303,600;  241,450
251,826;  294,200;  313,600;  259,450
251,917;  314,200;  325,600;  258,450
252,009;  319,200;  338,600;  254,450
252,100;  308,200;  343,600;  266,450
252,191;  354,200;  337,600;  260,450
252,283;  313,200;  328,600;  299,450
252,374;  375,200;  372,600;  289,450
252,465;  365,200;  390,600;  301,450
252,557;  374,200;  393,600;  251,450
252,648;  433,200;  378,600;  258,450
252,739;  400,200;  397,600;  267,450
252,831;  405,200;  439,600;  250,450
252,922;  442,200;  440,600;  266,450
253,013;  519,200;  520,600;  241,450
253,104;  544,200;  576,600;  255,450
253,196;  730,200;  712,600;  265,450
253,287;  894,200;  807,600;  289,450
253,378; 1225,200; 1233,600;  257,450
253,469; 4215,200; 4083,600;  246,450
253,561;23230,199;23239,600;  253,450
253,652;42403,199;42949,602;  272,450
253,743; 5819,200; 5893,600;  210,450
253,834;  634,200;  622,600;  260,450
253,926;  465,200;  531,600;  249,450
254,017;  477,200;  459,600;  280,450
254,108;  425,200;  528,600;  290,450
254,199;  435,200;  418,600;  277,450
254,290;  409,200;  380,600;  290,450
254,381;  420,200;  429,600;  276,450
254,472;  380,200;  437,600;  250,450
254,564;  420,200;  411,600;  327,450
254,655;  385,200;  392,600;  304,450
254,746;  370,200;  345,600;  225,450
254,837;  344,200;  372,600;  282,450
254,928;  352,200;  368,600;  247,450
255,019;  352,200;  375,600;  281,450
255,110;  350,200;  357,600;  302,450
255,201;  327,200;  318,600;  284,450
255,292;  402,200;  381,600;  271,450
255,383;  338,200;  347,600;  265,450
255,474;  314,200;  329,600;  248,450
255,566;  327,200;  366,600;  271,450
255,657;  329,200;  350,600;  306,450
255,748;  307,200;  292,600;  235,450
255,839;  291,200;  331,600;  282,450
255,930;  313,200;  292,600;  302,450
256,021;  317,200;  336,600;  297,450
256,112;  328,200;  296,600;  257,450
256,203;  321,200;  339,600;  315,450
256,294;  339,200;  321,600;  265,450
256,384;  282,200;  279,600;  261,450
256,475;  308,200;  289,600;  284,450
256,566;  294,200;  297,600;  274,450
256,657;  298,200;  291,600;  267,450
256,748;  297,200;  302,600;  280,450
256,839;  287,200;  281,600;  274,450
256,930;  262,200;  278,600;  260,450
257,021;  309,200;  328,600;  283,450
257,112;  289,200;  311,600;  327,450
257,203;  276,200;  268,600;  240,450
257,294;  269,200;  276,600;  257,450
257,385;  267,200;  284,600;  272,450
257,475;  286,200;  277,600;  255,450
257,566;  266,200;  313,600;  267,450
257,657;  276,200;  339,600;  264,450
257,748;  278,200;  283,600;  252,450
257,839;  279,200;  319,600;  306,450
257,930;  295,200;  276,600;  275,450
258,020;  261,200;  278,600;  281,450
258,111;  276,200;  285,600;  256,450
258,202;  299,200;  309,600;  258,450
258,293;  269,200;  267,600;  255,450
258,384;  325,200;  329,600;  295,450
258,474;  294,200;  296,600;  244,450
258,565;  270,200;  250,600;  252,450
258,656;  295,200;  306,600;  257,450
258,747;  266,200;  293,600;  255,450
258,837;  282,200;  266,600;  231,450
258,928;  279,200;  247,600;  280,450
259,019;  263,200;  272,600;  264,450
259,109;  265,200;  264,600;  254,450
259,200;  289,200;  292,600;  291,450
259,291;  255,200;  246,600;  297,450
259,381;  289,200;  309,600;  264,450
259,472;  289,200;  299,600;  272,450
259,563;  296,200;  307,600;  273,450
259,653;  232,200;  281,600;  247,450
259,744;  279,200;  280,600;  260,450
259,835;  334,200;  284,600;  274,450
259,925;  284,200;  257,600;  276,450
260,016;  272,200;  303,600;  282,450
260,107;  256,200;  264,600;  265,450
260,197;  275,200;  279,600;  258,450
260,288;  295,200;  263,600;  273,450
260,378;  270,200;  274,600;  244,450
260,469;  286,200;  299,600;  273,450
260,560;  272,200;  267,600;  276,450
260,650;  281,200;  269,600;  265,450
260,741;  307,200;  279,600;  256,450
260,831;  275,200;  246,600;  276,450
260,922;  259,200;  271,600;  258,450
261,012;  258,200;  271,600;  256,450
261,103;  280,200;  320,600;  294,450
261,193;  273,200;  317,600;  320,450
261,284;  271,200;  256,600;  254,450
261,374;  331,200;  295,600;  253,450
261,465;  303,200;  321,600;  304,450
261,555;  300,200;  271,600;  275,450
261,646;  266,200;  290,600;  300,450
261,736;  281,200;  265,600;  287,450
261,827;  289,200;  293,600;  256,450
261,917;  275,200;  294,600;  344,450
262,007;  296,200;  269,600;  289,450
262,098;  269,200;  334,600;  256,450
262,188;  344,200;  316,600;  305,450
262,279;  284,200;  290,600;  292,450
262,369;  245,200;  276,600;  282,450
262,459;  310,200;  262,600;  260,450
262,550;  300,200;  314,600;  290,450
262,640;  260,200;  261,600;  274,450
262,731;  306,200;  302,600;  298,450
262,821;  288,200;  287,600;  323,450
262,911;  285,200;  312,600;  268,450
263,002;  298,200;  278,600;  271,450
263,092;  296,200;  292,600;  309,450
263,182;  293,200;  280,600;  257,450
263,273;  282,200;  277,600;  261,450
263,363;  300,200;  309,600;  284,450
263,453;  285,200;  266,600;  259,450
263,543;  240,200;  289,600;  326,450
263,634;  290,200;  263,600;  262,450
263,724;  297,200;  278,600;  276,450
263,814;  302,200;  304,600;  288,450
263,904;  266,200;  270,600;  267,450
263,995;  350,200;  306,600;  321,450
264,085;  291,200;  301,600;  259,450
264,175;  296,200;  284,600;  306,450
264,265;  307,200;  305,600;  298,450
264,356;  227,200;  260,600;  289,450
264,446;  309,200;  296,600;  298,450
264,536;  283,200;  270,600;  297,450
264,626;  306,200;  315,600;  295,450
264,716;  311,200;  330,600;  277,450
264,806;  311,200;  327,600;  306,450
264,897;  246,200;  255,600;  273,450
264,987;  311,200;  310,600;  286,450
265,077;  299,200;  297,600;  285,450
265,167;  367,200;  394,600;  346,450
265,257;  319,200;  333,600;  273,450
265,347;  323,200;  331,600;  286,450
265,437;  339,200;  304,600;  289,450
265,527;  305,200;  314,600;  292,450
265,617;  265,200;  292,600;  265,450
265,708;  303,200;  330,600;  308,450
265,798;  313,200;  315,600;  301,450
265,888;  287,200;  275,600;  270,450
265,978;  288,200;  274,600;  242,450
266,068;  302,200;  291,600;  316,450
266,158;  293,200;  288,600;  254,450
266,248;  242,200;  305,600;  248,450
266,338;  311,200;  307,600;  293,450
266,428;  294,200;  294,600;  259,450
266,518;  311,200;  321,600;  320,450
266,608;  262,200;  245,600;  273,450
266,698;  265,200;  284,600;  256,450
266,788;  275,200;  263,600;  248,450
266,878;  307,200;  350,600;  317,450
266,968;  295,200;  282,600;  304,450
267,058;  291,200;  280,600;  292,450
267,147;  294,200;  327,600;  300,450
267,237;  291,200;  293,600;  276,450
267,327;  275,200;  292,600;  276,450
267,417;  303,200;  320,600;  264,450
267,507;  281,200;  297,600;  294,450
267,597;  281,200;  273,600;  272,450
267,687;  283,200;  268,600;  286,450
267,777;  271,200;  267,600;  270,450
267,867;  321,200;  321,600;  296,450
267,956;  284,200;  282,600;  257,450
268,046;  304,200;  306,600;  298,450
268,136;  277,200;  265,600;  291,450
268,226;  305,200;  269,600;  261,450
268,316;  270,200;  266,600;  262,450
268,406;  276,200;  268,600;  338,450
268,495;  262,200;  278,600;  259,450
268,585;  302,200;  304,600;  263,450
268,675;  268,200;  296,600;  260,450
268,765;  271,200;  296,600;  287,450
268,854;  274,200;  277,600;  291,450
268,944;  269,200;  288,600;  299,450
269,034;  263,200;  313,600;  279,450
269,124;  254,200;  283,600;  286,450
269,213;  271,200;  277,600;  255,450
269,303;  263,200;  290,600;  247,450
269,393;  306,200;  265,600;  307,450
269,483;  293,200;  338,600;  273,450
269,572;  269,200;  295,600;  243,450
269,662;  267,200;  286,600;  301,450
269,752;  329,200;  320,600;  299,450
269,841;  239,200;  270,600;  247,450
269,931;  284,200;  264,600;  276,450
270,021;  300,200;  299,600;  295,450
270,110;  303,200;  286,600;  268,450
270,200;  318,200;  329,600;  299,450
270,289;  285,200;  258,600;  279,450
270,379;  278,200;  315,600;  282,450
270,469;  276,200;  297,600;  273,450
270,558;  315,200;  300,600;  286,450
270,648;  283,200;  266,600;  245,450
270,737;  286,200;  288,600;  271,450
270,827;  327,200;  279,600;  263,450
270,916;  298,200;  266,600;  280,450
271,006;  307,200;  287,600;  287,450
271,096;  327,200;  312,600;  334,450
271,185;  293,200;  307,600;  299,450
271,275;  283,200;  305,600;  279,450
271,364;  279,200;  300,600;  286,450
271,454;  281,200;  301,600;  273,450
271,543;  289,200;  295,600;  279,450
271,633;  302,200;  293,600;  257,450
271,722;  267,200;  240,600;  257,450
271,812;  273,200;  255,600;  299,450
271,901;  288,200;  276,600;  286,450
271,990;  282,200;  293,600;  267,450
272,080;  271,200;  282,600;  284,450
272,169;  297,200;  339,600;  288,450
272,259;  278,200;  319,600;  275,450
272,348;  314,200;  291,600;  305,450
272,438;  257,200;  302,600;  301,450
272,527;  297,200;  288,600;  290,450
272,616;  302,200;  295,600;  300,450
272,706;  317,200;  319,600;  313,450
272,795;  307,200;  285,600;  290,450
272,884;  274,200;  302,600;  294,450
272,974;  310,200;  281,600;  279,450
273,063;  323,200;  361,600;  290,450
273,152;  312,200;  299,600;  296,450
273,242;  327,200;  296,600;  311,450
273,331;  315,200;  306,600;  299,450
273,420;  315,200;  296,600;  313,450
273,510;  297,200;  292,600;  311,450
273,599;  274,200;  323,600;  312,450
273,688;  293,200;  311,600;  299,450
273,778;  255,200;  266,600;  259,450
273,867;  313,200;  287,600;  312,450
273,956;  298,200;  303,600;  273,450
274,045;  257,200;  263,600;  236,450
274,135;  302,200;  317,600;  317,450
274,224;  307,200;  316,600;  295,450
274,313;  306,200;  299,600;  294,450
274,402;  279,200;  263,600;  266,450
274,491;  320,200;  277,600;  286,450
274,581;  315,200;  302,600;  266,450
274,670;  283,200;  311,600;  303,450
274,759;  285,200;  303,600;  283,450
274,848;  279,200;  275,600;  301,450
274,937;  256,200;  276,600;  293,450
275,026;  287,200;  298,600;  255,450
275,116;  309,200;  323,600;  309,450
275,205;  254,200;  263,600;  231,450
275,294;  307,200;  333,600;  302,450
275,383;  316,200;  253,600;  278,450
275,472;  281,200;  286,600;  299,450
275,561;  294,200;  299,600;  300,450
275,650;  309,200;  289,600;  281,450
275,739;  265,200;  268,600;  287,450
275,828;  236,200;  262,600;  259,450
275,917;  324,200;  318,600;  305,450
276,006;  297,200;  255,600;  304,450
276,095;  300,200;  276,600;  294,450
276,184;  294,200;  317,600;  317,450
276,273;  268,200;  270,600;  297,450
276,362;  298,200;  260,600;  256,450
276,451;  292,200;  271,600;  286,450
276,540;  282,200;  259,600;  271,450
276,629;  303,200;  274,600;  290,450
276,718;  266,200;  268,600;  258,450
276,807;  259,200;  275,600;  256,450
276,896;  276,200;  269,600;  277,450
276,985;  249,200;  287,600;  255,450
277,074;  277,200;  270,600;  267,450
277,163;  317,200;  289,600;  281,450
277,252;  259,200;  269,600;  278,450
277,341;  274,200;  272,600;  248,450
277,430;  264,200;  239,600;  255,450
277,519;  302,200;  304,600;  293,450
277,608;  250,200;  254,600;  244,450
277,696;  255,200;  272,600;  279,450
277,785;  265,200;  255,600;  276,450
277,874;  290,200;  285,600;  259,450
277,963;  271,200;  273,600;  248,450
278,052;  267,200;  264,600;  286,450
278,141;  281,200;  289,600;  267,450
278,229;  306,200;  279,600;  278,450
278,318;  253,200;  278,600;  269,450
278,407;  293,200;  288,600;  264,450
278,496;  265,200;  319,600;  277,450
278,585;  302,200;  288,600;  297,450
278,673;  257,200;  257,600;  251,450
278,762;  262,200;  238,600;  264,450
278,851;  260,200;  293,600;  272,450
278,940;  296,200;  293,600;  318,450
279,028;  301,200;  271,600;  284,450
279,117;  278,200;  290,600;  283,450
279,206;  301,200;  260,600;  254,450
279,294;  260,200;  280,600;  268,450
279,383;  286,200;  272,600;  289,450
279,472;  318,200;  311,600;  252,450
279,561;  283,200;  264,600;  275,450
279,649;  292,200;  305,600;  283,450
279,738;  236,200;  229,600;  266,450
279,827;  283,200;  285,600;  272,450
279,915;  255,200;  283,600;  248,450
280,004;  265,200;  273,600;  285,450
280,092;  312,200;  286,600;  275,450
280,181;  282,200;  284,600;  249,450
280,270;  293,200;  280,600;  236,450
280,358;  287,200;  299,600;  288,450
280,447;  276,200;  246,600;  240,450
280,535;  244,200;  284,600;  259,450
280,624;  271,200;  291,600;  256,450
280,713;  280,200;  267,600;  266,450
280,801;  253,200;  303,600;  274,450
280,890;  274,200;  262,600;  274,450
280,978;  292,200;  267,600;  239,450
281,067;  241,200;  229,600;  244,450
281,155;  266,200;  267,600;  279,450
281,244;  302,200;  301,600;  299,450
281,332;  279,200;  252,600;  297,450
281,421;  304,200;  273,600;  229,450
281,509;  276,200;  266,600;  268,450
281,598;  257,200;  255,600;  241,450
281,686;  289,200;  300,600;  277,450
281,775;  303,200;  283,600;  280,450
281,863;  256,200;  244,600;  264,450
281,951;  282,200;  254,600;  256,450
282,040;  288,200;  289,600;  320,450
282,128;  290,200;  289,600;  290,450
282,217;  239,200;  255,600;  246,450
282,305;  292,200;  291,600;  280,450
282,393;  289,200;  332,600;  266,450
282,482;  282,200;  314,600;  268,450
282,570;  259,200;  274,600;  279,450
282,658;  263,200;  295,600;  277,450
282,747;  250,200;  257,600;  278,450
282,835;  266,200;  319,600;  305,450
282,923;  283,200;  230,600;  262,450
283,012;  263,200;  268,600;  305,450
283,100;  239,200;  263,600;  230,450
283,188;  241,200;  244,600;  243,450
283,277;  297,200;  279,600;  282,450
283,365;  233,200;  252,600;  253,450
283,453;  253,200;  253,600;  228,450
283,542;  273,200;  293,600;  259,450
283,630;  278,200;  259,600;  271,450
283,718;  252,200;  271,600;  247,450
283,806;  238,200;  225,600;  226,450
283,894;  252,200;  276,600;  274,450
283,983;  272,200;  256,600;  279,450
284,071;  281,200;  307,600;  269,450
284,159;  310,200;  319,600;  305,450
284,247;  267,200;  296,600;  287,450
284,335;  260,200;  267,600;  263,450
284,424;  286,200;  287,600;  269,450
284,512;  284,200;  295,600;  248,450
284,600;  273,200;  261,600;  236,450
284,688;  299,200;  297,600;  325,450
284,776;  314,200;  259,600;  277,450
284,864;  283,200;  327,600;  300,450
284,952;  262,200;  291,600;  276,450
285,041;  302,200;  286,600;  304,450
285,129;  309,200;  304,600;  290,450
285,217;  301,200;  309,600;  280,450
285,305;  309,200;  297,600;  304,450
285,393;  271,200;  255,600;  268,450
285,481;  299,200;  292,600;  274,450
285,569;  256,200;  297,600;  281,450
285,657;  254,200;  272,600;  276,450
285,745;  288,200;  334,600;  282,450
285,833;  281,200;  277,600;  294,450
285,921;  283,200;  301,600;  299,450
286,009;  292,200;  308,600;  308,450
286,097;  297,200;  313,600;  288,450
286,185;  300,200;  294,600;  259,450
286,273;  290,200;  302,600;  257,450
286,361;  303,200;  322,600;  287,450
286,449;  292,200;  305,600;  260,450
286,537;  282,200;  300,600;  248,450
286,625;  314,200;  300,600;  275,450
286,713;  289,200;  262,600;  270,450
286,801;  277,200;  320,600;  307,450
286,889;  306,200;  304,600;  282,450
286,976;  283,200;  271,600;  266,450
287,064;  301,200;  297,600;  309,450
287,152;  288,200;  332,600;  299,450
287,240;  320,200;  297,600;  327,450
287,328;  273,200;  249,600;  245,450
287,416;  285,200;  295,600;  277,450
287,504;  286,200;  302,600;  274,450
287,591;  306,200;  317,600;  307,450
287,679;  268,200;  272,600;  275,450
287,767;  270,200;  270,600;  292,450
287,855;  270,200;  271,600;  284,450
287,943;  283,200;  312,600;  269,450
288,030;  271,200;  246,600;  293,450
288,118;  308,200;  325,600;  295,450
288,206;  261,200;  264,600;  290,450
288,294;  289,200;  273,600;  292,450
288,382;  323,200;  301,600;  288,450
288,469;  311,200;  324,600;  274,450
288,557;  286,200;  276,600;  275,450
288,645;  294,200;  321,600;  281,450
288,732;  256,200;  274,600;  276,450
288,820;  319,200;  334,600;  270,450
288,908;  317,200;  295,600;  295,450
288,995;  307,200;  295,600;  277,450
289,083;  281,200;  278,600;  278,450
289,171;  348,200;  328,600;  310,450
289,258;  303,200;  402,600;  311,450
289,346;  458,200;  433,600;  329,450
289,434;  289,200;  345,600;  318,450
289,521;  284,200;  298,600;  281,450
289,609;  338,200;  317,600;  309,450
289,697;  307,200;  310,600;  321,450
289,784;  299,200;  300,600;  284,450
289,872;  300,200;  314,600;  313,450
289,959;  278,200;  274,600;  262,450
290,047;  297,200;  268,600;  272,450
290,134;  281,200;  286,600;  264,450
290,222;  313,200;  317,600;  294,450
290,310;  292,200;  310,600;  280,450
290,397;  345,200;  302,600;  319,450
290,485;  284,200;  291,600;  284,450
290,572;  286,200;  286,600;  318,450
290,660;  300,200;  300,600;  293,450
290,747;  290,200;  292,600;  290,450
290,835;  296,200;  296,600;  321,450
290,922;  296,200;  307,600;  294,450
291,009;  277,200;  310,600;  283,450
291,097;  306,200;  305,600;  282,450
291,184;  307,200;  319,600;  313,450
291,272;  296,200;  297,600;  264,450
291,359;  282,200;  283,600;  283,450
291,447;  308,200;  294,600;  309,450
291,534;  319,200;  310,600;  315,450
291,621;  297,200;  261,600;  308,450
291,709;  284,200;  284,600;  270,450
291,796;  345,200;  313,600;  323,450
291,884;  310,200;  310,600;  308,450
291,971;  349,200;  306,600;  287,450
292,058;  282,200;  250,600;  294,450
292,146;  292,200;  293,600;  279,450
292,233;  278,200;  284,600;  243,450
292,320;  271,200;  294,600;  284,450
292,408;  334,200;  316,600;  297,450
292,495;  297,200;  302,600;  281,450
292,582;  310,200;  276,600;  273,450
292,669;  257,200;  273,600;  285,450
292,757;  285,200;  292,600;  288,450
292,844;  299,200;  305,600;  312,450
292,931;  296,200;  272,600;  266,450
293,018;  281,200;  267,600;  264,450
293,106;  292,200;  290,600;  324,450
293,193;  262,200;  265,600;  280,450
293,280;  299,200;  304,600;  310,450
293,367;  300,200;  279,600;  295,450
293,455;  256,200;  253,600;  248,450
293,542;  264,200;  264,600;  268,450
293,629;  259,200;  264,600;  272,450
293,716;  289,200;  341,600;  307,450
293,803;  288,200;  273,600;  279,450
293,890;  298,200;  284,600;  298,450
293,978;  308,200;  277,600;  266,450
294,065;  289,200;  293,600;  268,450
294,152;  308,200;  276,600;  315,450
294,239;  266,200;  294,600;  269,450
294,326;  293,200;  307,600;  277,450
294,413;  272,200;  280,600;  253,450
294,500;  290,200;  304,600;  286,450
294,587;  272,200;  291,600;  255,450
294,674;  311,200;  280,600;  314,450
294,761;  282,200;  283,600;  266,450
294,848;  274,200;  275,600;  288,450
294,935;  291,200;  281,600;  279,450
295,022;  284,200;  269,600;  243,450
295,109;  237,200;  259,600;  253,450
295,196;  285,200;  297,600;  309,450
295,283;  263,200;  295,600;  256,450
295,370;  293,200;  318,600;  307,450
295,457;  292,200;  266,600;  285,450
295,544;  268,200;  277,600;  264,450
295,631;  306,200;  282,600;  272,450
295,718;  283,200;  279,600;  248,450
295,805;  322,200;  298,600;  281,450
295,892;  298,200;  314,600;  274,450
295,979;  278,200;  294,600;  284,450
296,066;  309,200;  306,600;  278,450
296,153;  333,200;  313,600;  324,450
296,240;  311,200;  312,600;  282,450
296,327;  307,200;  286,600;  257,450
296,413;  295,200;  316,600;  272,450
296,500;  310,200;  330,600;  261,450
296,587;  532,200;  534,600;  268,450
296,674; 1667,200; 1749,600;  263,450
296,761;  777,200;  786,600;  252,450
296,848;  255,200;  299,600;  274,450
296,934;  285,200;  296,600;  274,450
297,021;  312,200;  286,600;  266,450
297,108;  265,200;  310,600;  269,450
297,195;  288,200;  276,600;  268,450
297,282;  295,200;  295,600;  273,450
297,368;  314,200;  297,600;  347,450
297,455;  284,200;  284,600;  259,450
297,542;  296,200;  330,600;  316,450
297,629;  308,200;  315,600;  290,450
297,715;  289,200;  309,600;  306,450
297,802;  299,200;  286,600;  273,450
297,889;  330,200;  307,600;  319,450
297,975;  320,200;  326,600;  320,450
298,062;  316,200;  325,600;  301,450
298,149;  270,200;  300,600;  269,450
298,235;  269,200;  286,600;  308,450
298,322;  293,200;  287,600;  291,450
298,409;  306,200;  340,600;  304,450
298,495;  240,200;  282,600;  250,450
298,582;  283,200;  303,600;  304,450
298,669;  272,200;  290,600;  290,450
298,755;  292,200;  295,600;  281,450
298,842;  305,200;  315,600;  314,450
298,928;  290,200;  298,600;  281,450
299,015;  265,200;  287,600;  296,450
299,102;  306,200;  306,600;  309,450
299,188;  284,200;  307,600;  292,450
299,275;  324,200;  313,600;  289,450
299,361;  267,200;  274,600;  256,450
299,448;  320,200;  283,600;  278,450
299,534;  329,200;  328,600;  282,450
299,621;  302,200;  323,600;  302,450
299,707;  300,200;  298,600;  298,450
299,794;  301,200;  318,600;  322,450
299,880;  302,200;  301,600;  313,450
299,967;  292,200;  285,600;  251,450
300,053;  279,200;  301,600;  301,450
300,140;  314,200;  314,600;  315,450
300,226;  282,200;  320,600;  297,450
300,312;  315,200;  310,600;  306,450
300,399;  306,200;  290,600;  309,450
300,485;  277,200;  310,600;  268,450
300,572;  269,200;  272,600;  257,450
300,658;  275,200;  299,600;  272,450
300,744;  297,200;  310,600;  301,450
300,831;  309,200;  302,600;  292,450
300,917;  306,200;  298,600;  310,450
301,004;  316,200;  299,600;  288,450
301,090;  269,200;  279,600;  254,450
301,176;  274,200;  284,600;  254,450
301,263;  302,200;  322,600;  282,450
301,349;  287,200;  294,600;  273,450
301,435;  266,200;  267,600;  268,450
301,521;  282,200;  323,600;  301,450
301,608;  291,200;  311,600;  319,450
301,694;  291,200;  304,600;  283,450
301,780;  287,200;  296,600;  288,450
301,867;  315,200;  281,600;  274,450
301,953;  309,200;  289,600;  304,450
302,039;  395,200;  409,600;  273,450
302,125;  517,200;  539,600;  281,450
302,211;  399,200;  349,600;  300,450
302,298;  327,200;  374,600;  261,450
302,384;  276,200;  296,600;  238,450
302,470;  297,200;  280,600;  280,450
302,556;  302,200;  331,600;  294,450
302,642;  319,200;  286,600;  226,450
302,729;  275,200;  300,600;  270,450
302,815;  326,200;  299,600;  269,450
302,901;  298,200;  267,600;  294,450
302,987;  275,200;  299,600;  293,450
303,073;  303,200;  284,600;  283,450
303,159;  285,200;  295,600;  305,450
303,245;  301,200;  279,600;  256,450
303,331;  271,200;  281,600;  277,450
303,417;  279,200;  283,600;  328,450
303,503;  291,200;  331,600;  293,450
303,590;  266,200;  289,600;  272,450
303,676;  298,200;  289,600;  302,450
303,762;  271,200;  288,600;  270,450
303,848;  337,200;  295,600;  316,450
303,934;  291,200;  323,600;  286,450
304,020;  297,200;  304,600;  288,450
304,106;  313,200;  318,600;  287,450
304,192;  291,200;  265,600;  275,450
304,278;  286,200;  297,600;  304,450
304,364;  321,200;  327,600;  303,450
304,450;  274,200;  283,600;  288,450
304,535;  316,200;  304,600;  295,450
304,621;  285,200;  302,600;  309,450
304,707;  291,200;  294,600;  296,450
304,793;  282,200;  323,600;  295,450
304,879;  299,200;  305,600;  292,450
304,965;  294,200;  297,600;  273,450
305,051;  272,200;  310,600;  260,450
305,137;  301,200;  266,600;  314,450
305,223;  271,200;  299,600;  301,450
305,309;  313,200;  306,600;  306,450
305,394;  301,200;  266,600;  282,450
305,480;  278,200;  298,600;  266,450
305,566;  318,200;  280,600;  297,450
305,652;  343,200;  297,600;  308,450
305,738;  332,200;  332,600;  315,450
305,824;  314,200;  280,600;  303,450
305,909;  321,200;  338,600;  301,450
305,995;  283,200;  267,600;  268,450
306,081;  307,200;  368,600;  334,450
306,167;  300,200;  287,600;  311,450
306,252;  307,200;  319,600;  311,450
306,338;  302,200;  332,600;  332,450
306,424;  313,200;  315,600;  260,450
306,510;  311,200;  355,600;  305,450
306,595;  326,200;  303,600;  335,450
306,681;  333,200;  321,600;  287,450
306,767;  281,200;  313,600;  286,450
306,852;  302,200;  337,600;  314,450
306,938;  349,200;  291,600;  336,450
307,024;  281,200;  281,600;  321,450
307,109;  334,200;  340,600;  327,450
307,195;  298,200;  318,600;  337,450
307,281;  319,200;  322,600;  315,450
307,366;  306,200;  319,600;  284,450
307,452;  300,200;  292,600;  312,450
307,537;  309,200;  289,600;  281,450
307,623;  293,200;  272,600;  282,450
307,709;  295,200;  302,600;  325,450
307,794;  281,200;  293,600;  258,450
307,880;  276,200;  321,600;  320,450
307,965;  298,200;  278,600;  274,450
308,051;  286,200;  263,600;  305,450
308,136;  291,200;  314,600;  260,450
308,222;  298,200;  306,600;  301,450
308,307;  250,200;  286,600;  312,450
308,393;  307,200;  294,600;  285,450
308,478;  307,200;  321,600;  308,450
308,564;  287,200;  280,600;  276,450
308,649;  313,200;  308,600;  304,450
308,735;  291,200;  320,600;  278,450
308,820;  323,200;  328,600;  304,450
308,906;  303,200;  298,600;  272,450
308,991;  339,200;  339,600;  314,450
309,076;  320,200;  335,600;  290,450
309,162;  257,200;  265,600;  245,450
309,247;  307,200;  297,600;  288,450
309,333;  285,200;  284,600;  286,450
309,418;  293,200;  281,600;  297,450
309,503;  292,200;  301,600;  289,450
309,589;  272,200;  308,600;  306,450
309,674;  319,200;  274,600;  268,450
309,759;  310,200;  291,600;  289,450
309,845;  326,200;  290,600;  312,450
309,930;  308,200;  292,600;  288,450
310,015;  276,200;  257,600;  251,450
310,101;  339,200;  282,600;  296,450
310,186;  283,200;  267,600;  298,450
310,271;  299,200;  298,600;  286,450
310,357;  278,200;  265,600;  286,450
310,442;  302,200;  288,600;  263,450
310,527;  281,200;  288,600;  306,450
310,612;  259,200;  291,600;  253,450
310,698;  307,200;  282,600;  275,450
310,783;  301,200;  288,600;  279,450
310,868;  303,200;  313,600;  263,450
310,953;  280,200;  269,600;  293,450
311,038;  329,200;  289,600;  286,450
311,124;  295,200;  296,600;  277,450
311,209;  242,200;  293,600;  291,450
311,294;  307,200;  306,600;  303,450
311,379;  288,200;  254,600;  258,450
311,464;  290,200;  302,600;  291,450
311,549;  265,200;  277,600;  294,450
311,634;  297,200;  284,600;  275,450
311,719;  357,200;  308,600;  309,450
311,805;  276,200;  308,600;  275,450
311,890;  281,200;  308,600;  261,450
311,975;  294,200;  262,600;  283,450
312,060;  320,200;  321,600;  289,450
312,145;  316,200;  277,600;  262,450
312,230;  306,200;  313,600;  285,450
312,315;  310,200;  325,600;  262,450
312,400;  385,200;  404,600;  303,450
312,485; 1702,200; 1668,600;  292,450
312,570; 1222,200; 1232,600;  239,450
312,655;  359,200;  342,600;  282,450
312,740;  315,200;  312,600;  289,450
312,825;  320,200;  329,600;  301,450
312,910;  343,200;  343,600;  278,450
312,995;  439,200;  443,600;  325,450
313,080; 2081,200; 2082,600;  265,450
313,165; 2085,200; 2149,600;  310,450
313,250;  380,200;  308,600;  276,450
313,335;  287,200;  321,600;  307,450
313,419;  265,200;  269,600;  242,450
313,504;  318,200;  304,600;  286,450
313,589;  288,200;  272,600;  277,450
313,674;  286,200;  303,600;  290,450
313,759;  295,200;  274,600;  273,450
313,844;  260,200;  276,600;  289,450
313,929;  311,200;  295,600;  285,450
314,014;  298,200;  307,600;  320,450
314,098;  275,200;  321,600;  305,450
314,183;  261,200;  258,600;  260,450
314,268;  294,200;  295,600;  290,450
314,353;  311,200;  287,600;  290,450
314,438;  311,200;  287,600;  294,450
314,522;  301,200;  272,600;  306,450
314,607;  278,200;  282,600;  302,450
314,692;  313,200;  291,600;  301,450
314,777;  279,200;  291,600;  279,450
314,861;  251,200;  293,600;  263,450
314,946;  298,200;  321,600;  303,450
315,031;  245,200;  284,600;  267,450
315,115;  288,200;  309,600;  318,450
315,200;  293,200;  301,600;  285,450
315,285;  279,200;  278,600;  275,450
315,369;  273,200;  282,600;  273,450
315,454;  288,200;  291,600;  305,450
315,539;  312,200;  280,600;  283,450
315,623;  318,200;  308,600;  292,450
315,708;  315,200;  326,600;  315,450
315,793;  274,200;  318,600;  308,450
315,877;  326,200;  311,600;  282,450
315,962;  276,200;  263,600;  283,450
316,046;  313,200;  327,600;  298,450
316,131;  331,200;  334,600;  313,450
316,216;  307,200;  308,600;  288,450
316,300;  317,200;  307,600;  281,450
316,385;  308,200;  301,600;  319,450
316,469;  346,200;  335,600;  331,450
316,554;  281,200;  290,600;  288,450
316,638;  289,200;  297,600;  286,450
316,723;  290,200;  285,600;  262,450
316,807;  272,200;  268,600;  273,450
316,892;  273,200;  293,600;  275,450
316,976;  304,200;  298,600;  318,450
317,061;  312,200;  282,600;  309,450
317,145;  329,200;  316,600;  315,450
317,230;  310,200;  309,600;  304,450
317,314;  262,200;  264,600;  259,450
317,398;  316,200;  280,600;  323,450
317,483;  244,200;  312,600;  266,450
317,567;  308,200;  299,600;  317,450
317,652;  285,200;  280,600;  244,450
317,736;  291,200;  277,600;  329,450
317,820;  352,200;  343,600;  287,450
317,905;  296,200;  311,600;  289,450
317,989;  258,200;  303,600;  312,450
318,073;  268,200;  281,600;  280,450
318,158;  275,200;  262,600;  284,450
318,242;  300,200;  297,600;  269,450
318,326;  286,200;  265,600;  260,450
318,411;  287,200;  263,600;  290,450
318,495;  266,200;  274,600;  286,450
318,579;  271,200;  264,600;  266,450
318,664;  266,200;  284,600;  242,450
318,748;  307,200;  290,600;  266,450
318,832;  281,200;  261,600;  263,450
318,916;  255,200;  272,600;  263,450
319,001;  295,200;  287,600;  299,450
319,085;  277,200;  265,600;  265,450
319,169;  309,200;  304,600;  285,450
319,253;  298,200;  270,600;  271,450
319,337;  301,200;  311,600;  265,450
319,422;  277,200;  329,600;  325,450
319,506;  318,200;  282,600;  264,450
319,590;  300,200;  303,600;  320,450
319,674;  267,200;  326,600;  301,450
319,758;  286,200;  277,600;  278,450
319,842;  294,200;  280,600;  290,450
319,926;  295,200;  268,600;  280,450
320,010;  264,200;  267,600;  226,450
320,095;  277,200;  284,600;  274,450
320,179;  261,200;  270,600;  263,450
320,263;  323,200;  259,600;  265,450
320,347;  301,200;  217,600;  260,450
320,431;  250,200;  267,600;  245,450
320,515;  290,200;  297,600;  267,450
320,599;  270,200;  274,600;  263,450
320,683;  297,200;  295,600;  306,450
320,767;  238,200;  246,600;  230,450
320,851;  263,200;  247,600;  282,450
320,935;  327,200;  294,600;  317,450
321,019;  277,200;  258,600;  297,450
321,103;  282,200;  319,600;  295,450
321,187;  259,200;  272,600;  303,450
321,271;  267,200;  299,600;  251,450
321,355;  271,200;  290,600;  264,450
321,439;  322,200;  282,600;  306,450
321,523;  277,200;  285,600;  287,450
321,606;  279,200;  289,600;  301,450
321,690;  269,200;  285,600;  261,450
321,774;  303,200;  284,600;  286,450
321,858;  277,200;  300,600;  283,450
321,942;  280,200;  298,600;  291,450
322,026;  289,200;  296,600;  280,450
322,110;  280,200;  286,600;  264,450
322,194;  283,200;  279,600;  293,450
322,277;  268,200;  287,600;  257,450
322,361;  254,200;  260,600;  265,450
322,445;  296,200;  285,600;  252,450
322,529;  276,200;  298,600;  264,450
322,613;  275,200;  273,600;  262,450
322,696;  298,200;  287,600;  266,450
322,780;  265,200;  303,600;  256,450
322,864;  288,200;  310,600;  288,450
322,948;  302,200;  262,600;  270,450
323,031;  247,200;  268,600;  269,450
323,115;  253,200;  299,600;  257,450
323,199;  302,200;  291,600;  268,450
323,282;  306,200;  284,600;  302,450
323,366;  273,200;  280,600;  307,450
323,450;  275,200;  241,600;  266,450
323,533;  316,200;  309,600;  308,450
323,617;  273,200;  243,600;  238,450
323,701;  277,200;  239,600;  257,450
323,784;  286,200;  305,600;  289,450
323,868;  297,200;  302,600;  285,450
323,952;  274,200;  276,600;  272,450
324,035;  288,200;  295,600;  297,450
324,119;  278,200;  285,600;  262,450
324,202;  281,200;  280,600;  298,450
324,286;  272,200;  236,600;  286,450
324,370;  315,200;  291,600;  274,450
324,453;  294,200;  287,600;  296,450
324,537;  313,200;  280,600;  281,450
324,620;  286,200;  295,600;  303,450
324,704;  272,200;  281,600;  261,450
324,787;  279,200;  295,600;  267,450
324,871;  321,200;  293,600;  314,450
324,954;  274,200;  299,600;  318,450
325,038;  299,200;  299,600;  301,450
325,121;  310,200;  302,600;  316,450
325,205;  307,200;  273,600;  277,450
325,288;  278,200;  280,600;  269,450
325,371;  297,200;  275,600;  285,450
325,455;  299,200;  289,600;  302,450
325,538;  305,200;  292,600;  308,450
325,622;  297,200;  302,600;  306,450
325,705;  275,200;  303,600;  300,450
325,788;  320,200;  297,600;  298,450
325,872;  277,200;  264,600;  279,450
325,955;  340,200;  305,600;  300,450
326,039;  296,200;  290,600;  313,450
326,122;  299,200;  277,600;  288,450
326,205;  322,200;  320,600;  299,450
326,289;  328,200;  313,600;  313,450
326,372;  274,200;  310,600;  288,450
326,455;  306,200;  322,600;  318,450
326,538;  309,200;  312,600;  306,450
326,622;  305,200;  285,600;  313,450
326,705;  304,200;  272,600;  290,450
326,788;  317,200;  288,600;  324,450
326,871;  315,200;  286,600;  281,450
326,955;  308,200;  293,600;  333,450
327,038;  282,200;  304,600;  284,450
327,121;  330,200;  313,600;  303,450
327,204;  316,200;  315,600;  298,450
327,288;  335,200;  326,600;  328,450
327,371;  296,200;  286,600;  294,450
327,454;  311,200;  303,600;  316,450
327,537;  279,200;  272,600;  285,450
327,620;  322,200;  327,600;  309,450
327,703;  287,200;  308,600;  314,450
327,786;  296,200;  320,600;  319,450
327,870;  303,200;  321,600;  308,450
327,953;  309,200;  307,600;  296,450
328,036;  285,200;  291,600;  264,450
328,119;  319,200;  345,600;  299,450
328,202;  310,200;  305,600;  287,450
328,285;  323,200;  336,600;  306,450
328,368;  314,200;  335,600;  328,450
328,451;  296,200;  325,600;  334,450
328,534;  277,200;  292,600;  283,450
328,617;  299,200;  290,600;  281,450
328,700;  325,200;  325,600;  327,450
328,783;  335,200;  319,600;  292,450
328,866;  276,200;  294,600;  287,450
328,949;  334,200;  341,600;  325,450
329,032;  267,200;  292,600;  308,450
329,115;  254,200;  288,600;  279,450
329,198;  301,200;  265,600;  282,450
329,281;  280,200;  310,600;  277,450
329,364;  311,200;  300,600;  330,450
329,447;  317,200;  303,600;  300,450
329,530;  287,200;  321,600;  317,450
329,613;  316,200;  302,600;  289,450
329,696;  322,200;  308,600;  298,450
329,778;  293,200;  313,600;  293,450
329,861;  306,200;  309,600;  288,450
329,944;  335,200;  326,600;  272,450
330,027;  312,200;  312,600;  296,450
330,110;  301,200;  305,600;  313,450
330,193;  290,200;  284,600;  300,450
330,275;  293,200;  290,600;  298,450
330,358;  313,200;  278,600;  298,450
330,441;  302,200;  307,600;  326,450
330,524;  326,200;  322,600;  298,450
330,607;  285,200;  281,600;  304,450
330,689;  312,200;  278,600;  321,450
330,772;  316,200;  290,600;  305,450
330,855;  287,200;  329,600;  287,450
330,938;  349,200;  332,600;  319,450
331,020;  300,200;  298,600;  292,450
331,103;  268,200;  280,600;  310,450
331,186;  302,200;  298,600;  286,450
331,268;  307,200;  280,600;  269,450
331,351;  312,200;  285,600;  311,450
331,434;  316,200;  296,600;  316,450
331,516;  324,200;  313,600;  329,450
331,599;  293,200;  266,600;  255,450
331,682;  301,200;  301,600;  302,450
331,764;  278,200;  308,600;  261,450
331,847;  314,200;  311,600;  310,450
331,929;  292,200;  286,600;  278,450
332,012;  282,200;  296,600;  295,450
332,095;  302,200;  348,600;  317,450
332,177;  323,200;  353,600;  324,450
332,260;  303,200;  349,600;  345,450
332,342;  300,200;  310,600;  291,450
332,425;  291,200;  301,600;  293,450
332,507;  293,200;  239,600;  316,450
332,590;  289,200;  274,600;  280,450
332,672;  269,200;  310,600;  264,450
332,755;  350,200;  320,600;  233,450
332,837;  283,200;  286,600;  274,450
332,920;  316,200;  315,600;  298,450
333,002;  316,200;  308,600;  306,450
333,085;  296,200;  308,600;  298,450
333,167;  263,200;  275,600;  266,450
333,249;  281,200;  276,600;  277,450
333,332;  268,200;  275,600;  279,450
333,414;  274,200;  317,600;  295,450
333,497;  302,200;  315,600;  305,450
333,579;  273,200;  303,600;  307,450
333,661;  292,200;  319,600;  286,450
333,744;  306,200;  265,600;  243,450
333,826;  299,200;  302,600;  293,450
333,908;  279,200;  329,600;  332,450
333,991;  328,200;  253,600;  285,450
334,073;  454,200;  503,600;  321,450
334,155;  361,200;  360,600;  289,450
334,238;  311,200;  314,600;  286,450
334,320;  309,200;  296,600;  270,450
334,402;  294,200;  298,600;  292,450
334,485;  309,200;  305,600;  282,450
334,567;  288,200;  301,600;  262,450
334,649;  249,200;  266,600;  273,450
334,731;  262,200;  287,600;  285,450
334,813;  301,200;  346,600;  352,450
334,896;  284,200;  296,600;  287,450
334,978;  304,200;  302,600;  283,450
335,060;  294,200;  306,600;  296,450
335,142;  303,200;  265,600;  306,450
335,224;  290,200;  308,600;  310,450
335,307;  284,200;  277,600;  275,450
335,389;  334,200;  302,600;  315,450
335,471;  301,200;  300,600;  282,450
335,553;  311,200;  308,600;  317,450
335,635;  297,200;  303,600;  277,450
335,717;  308,200;  280,600;  305,450
335,799;  301,200;  314,600;  325,450
335,881;  270,200;  271,600;  251,450
335,963;  301,200;  283,600;  278,450
336,045;  268,200;  281,600;  276,450
336,128;  248,200;  281,600;  268,450
336,210;  312,200;  284,600;  250,450
336,292;  277,200;  301,600;  283,450
336,374;  306,200;  307,600;  287,450
336,456;  296,200;  290,600;  258,450
336,538;  288,200;  288,600;  304,450
336,620;  310,200;  325,600;  305,450
336,702;  286,200;  308,600;  309,450
336,783;  289,200;  299,600;  289,450
336,865;  288,200;  302,600;  303,450
336,947;  332,200;  299,600;  302,450
337,029;  277,200;  252,600;  262,450
337,111;  293,200;  309,600;  328,450
337,193;  298,200;  257,600;  250,450
337,275;  320,200;  302,600;  291,450
337,357;  308,200;  299,600;  305,450
337,439;  312,200;  299,600;  277,450
337,521;  238,200;  274,600;  268,450
337,602;  285,200;  280,600;  295,450
337,684;  308,200;  302,600;  341,450
337,766;  286,200;  301,600;  288,450
337,848;  294,200;  309,600;  318,450
337,930;  285,200;  300,600;  300,450
338,012;  282,200;  257,600;  295,450
338,093;  294,200;  302,600;  312,450
338,175;  325,200;  308,600;  308,450
338,257;  287,200;  296,600;  243,450
338,339;  294,200;  303,600;  248,450
338,420;  299,200;  304,600;  329,450
338,502;  289,200;  292,600;  292,450
338,584;  306,200;  261,600;  270,450
338,666;  301,200;  293,600;  301,450
338,747;  325,200;  337,600;  324,450
338,829;  339,200;  301,600;  300,450
338,911;  294,200;  281,600;  284,450
338,992;  249,200;  292,600;  299,450
339,074;  294,200;  300,600;  274,450
339,156;  282,200;  308,600;  302,450
339,237;  321,200;  344,600;  320,450
339,319;  293,200;  298,600;  284,450
339,400;  306,200;  301,600;  313,450
339,482;  287,200;  291,600;  259,450
339,564;  323,200;  337,600;  315,450
339,645;  296,200;  283,600;  306,450
339,727;  298,200;  284,600;  278,450
339,808;  303,200;  306,600;  320,450
339,890;  287,200;  285,600;  277,450
339,971;  291,200;  318,600;  299,450
340,053;  326,200;  327,600;  339,450
340,134;  303,200;  287,600;  283,450
340,216;  285,200;  294,600;  302,450
340,297;  289,200;  330,600;  312,450
340,379;  287,200;  344,600;  301,450
340,460;  289,200;  275,600;  299,450
340,542;  295,200;  307,600;  263,450
340,623;  326,200;  306,600;  325,450
340,705;  300,200;  306,600;  262,450
340,786;  311,200;  299,600;  288,450
340,868;  278,200;  299,600;  313,450
340,949;  275,200;  279,600;  269,450
341,030;  323,200;  330,600;  312,450
341,112;  300,200;  256,600;  269,450
341,193;  259,200;  287,600;  248,450
341,274;  305,200;  325,600;  312,450
341,356;  341,200;  329,600;  300,450
341,437;  309,200;  292,600;  284,450
341,518;  298,200;  313,600;  322,450
341,600;  319,200;  321,600;  324,450
341,681;  308,200;  316,600;  308,450
341,762;  342,200;  316,600;  314,450
341,844;  282,200;  271,600;  280,450
341,925;  283,200;  304,600;  329,450
342,006;  281,200;  314,600;  322,450
342,087;  288,200;  291,600;  308,450
342,169;  335,200;  301,600;  297,450
342,250;  279,200;  303,600;  250,450
342,331;  277,200;  291,600;  268,450
342,412;  262,200;  304,600;  283,450
342,493;  322,200;  279,600;  266,450
342,575;  307,200;  298,600;  308,450
342,656;  311,200;  343,600;  319,450
342,737;  316,200;  331,600;  316,450
342,818;  311,200;  319,600;  291,450
342,899;  313,200;  309,600;  295,450
342,980;  331,200;  306,600;  302,450
343,061;  285,200;  297,600;  279,450
343,143;  318,200;  299,600;  310,450
343,224;  313,200;  297,600;  287,450
343,305;  320,200;  294,600;  273,450
343,386;  273,200;  290,600;  295,450
343,467;  282,200;  306,600;  295,450
343,548;  299,200;  307,600;  271,450
343,629;  302,200;  348,600;  311,450
343,710;  312,200;  354,600;  330,450
343,791;  332,200;  296,600;  295,450
343,872;  281,200;  314,600;  271,450
343,953;  291,200;  323,600;  303,450
344,034;  317,200;  307,600;  307,450
344,115;  286,200;  298,600;  295,450
344,196;  294,200;  295,600;  273,450
344,277;  278,200;  282,600;  299,450
344,358;  305,200;  279,600;  295,450
344,439;  318,200;  281,600;  287,450
344,520;  277,200;  310,600;  269,450
344,601;  327,200;  319,600;  332,450
344,681;  289,200;  312,600;  315,450
344,762;  316,200;  275,600;  257,450
344,843;  269,200;  300,600;  255,450
344,924;  264,200;  252,600;  290,450
345,005;  277,200;  269,600;  286,450
345,086;  282,200;  301,600;  289,450
345,167;  288,200;  299,600;  282,450
345,247;  304,200;  305,600;  327,450
345,328;  304,200;  287,600;  317,450
345,409;  308,200;  280,600;  307,450
345,490;  297,200;  314,600;  310,450
345,571;  292,200;  293,600;  295,450
345,651;  272,200;  260,600;  335,450
345,732;  300,200;  303,600;  286,450
345,813;  298,200;  285,600;  291,450
345,894;  292,200;  254,600;  279,450
345,974;  306,200;  346,600;  305,450
346,055;  284,200;  275,600;  291,450
346,136;  304,200;  311,600;  287,450
346,216;  307,200;  312,600;  345,450
346,297;  272,200;  294,600;  289,450
346,378;  265,200;  270,600;  300,450
346,458;  276,200;  299,600;  271,450
346,539;  294,200;  295,600;  315,450
346,620;  277,200;  301,600;  312,450
346,700;  266,200;  302,600;  258,450
346,781;  278,200;  252,600;  260,450
346,861;  316,200;  283,600;  301,450
346,942;  279,200;  273,600;  319,450
347,023;  286,200;  302,600;  306,450
347,103;  301,200;  296,600;  287,450
347,184;  291,200;  321,600;  294,450
347,264;  278,200;  289,600;  310,450
347,345;  267,200;  280,600;  281,450
347,425;  263,200;  270,600;  295,450
347,506;  266,200;  283,600;  283,450
347,586;  293,200;  258,600;  283,450
347,667;  315,200;  316,600;  299,450
347,747;  297,200;  307,600;  304,450
347,828;  285,200;  308,600;  271,450
347,908;  275,200;  307,600;  307,450
347,988;  270,200;  296,600;  251,450
348,069;  315,200;  295,600;  305,450
348,149;  322,200;  303,600;  276,450
348,230;  312,200;  297,600;  301,450
348,310;  261,200;  291,600;  301,450
348,390;  307,200;  285,600;  267,450
348,471;  317,200;  299,600;  270,450
348,551;  263,200;  289,600;  264,450
348,632;  286,200;  288,600;  278,450
348,712;  262,200;  281,600;  278,450
348,792;  303,200;  352,600;  333,450
348,873;  246,200;  293,600;  249,450
348,953;  271,200;  278,600;  330,450
349,033;  283,200;  285,600;  311,450
349,113;  245,200;  278,600;  277,450
349,194;  303,200;  289,600;  310,450
349,274;  315,200;  300,600;  310,450
349,354;  313,200;  288,600;  285,450
349,434;  271,200;  300,600;  299,450
349,515;  308,200;  310,600;  320,450
349,595;  299,200;  308,600;  287,450
349,675;  307,200;  289,600;  299,450
349,755;  268,200;  325,600;  280,450
349,835;  305,200;  305,600;  309,450
349,916;  310,200;  298,600;  284,450
349,996;  269,200;  287,600;  253,450
350,076;  309,200;  286,600;  315,450
350,156;  274,200;  272,600;  280,450
350,236;  298,200;  292,600;  316,450
350,316;  269,200;  296,600;  282,450
350,396;  322,200;  283,600;  306,450
350,476;  308,200;  308,600;  275,450
350,556;  287,200;  275,600;  290,450
350,637;  311,200;  331,600;  312,450
350,717;  294,200;  269,600;  287,450
350,797;  287,200;  307,600;  305,450
350,877;  304,200;  305,600;  323,450
350,957;  271,200;  285,600;  291,450
351,037;  295,200;  303,600;  298,450
351,117;  283,200;  304,600;  275,450
351,197;  295,200;  331,600;  302,450
351,277;  276,200;  328,600;  277,450
351,357;  273,200;  322,600;  293,450
351,437;  291,200;  299,600;  283,450
351,516;  307,200;  337,600;  283,450
351,596;  297,200;  291,600;  329,450
351,676;  282,200;  269,600;  284,450
351,756;  342,200;  308,600;  326,450
351,836;  315,200;  285,600;  329,450
351,916;  303,200;  324,600;  287,450
351,996;  292,200;  313,600;  318,450
352,076;  283,200;  288,600;  302,450
352,156;  315,200;  317,600;  297,450
352,235;  277,200;  310,600;  304,450
352,315;  309,200;  313,600;  339,450
352,395;  290,200;  306,600;  277,450
352,475;  297,200;  339,600;  287,450
352,555;  331,200;  362,600;  344,450
352,634;  292,200;  304,600;  344,450
352,714;  298,200;  310,600;  263,450
352,794;  351,200;  334,600;  364,450
352,874;  296,200;  335,600;  339,450
352,953;  339,200;  336,600;  318,450
353,033;  292,200;  317,600;  344,450
353,113;  333,200;  360,600;  341,450
353,193;  323,200;  314,600;  334,450
353,272;  316,200;  295,600;  329,450
353,352;  323,200;  303,600;  275,450
353,432;  342,200;  324,600;  344,450
353,511;  326,200;  323,600;  302,450
353,591;  345,200;  352,600;  347,450
353,671;  302,200;  335,600;  320,450
353,750;  305,200;  311,600;  311,450
353,830;  311,200;  319,600;  296,450
353,909;  307,200;  335,600;  341,450
353,989;  318,200;  309,600;  297,450
354,069;  289,200;  315,600;  318,450
354,148;  306,200;  341,600;  323,450
354,228;  327,200;  315,600;  300,450
354,307;  337,200;  313,600;  312,450
354,387;  301,200;  316,600;  326,450
354,466;  304,200;  319,600;  299,450
354,546;  323,200;  314,600;  347,450
354,625;  287,200;  341,600;  324,450
354,705;  322,200;  272,600;  330,450
354,784;  288,200;  301,600;  303,450
354,864;  290,200;  309,600;  305,450
354,943;  315,200;  340,600;  339,450
355,023;  319,200;  288,600;  314,450
355,102;  373,200;  337,600;  333,450
355,181;  290,200;  328,600;  329,450
355,261;  357,200;  314,600;  344,450
355,340;  305,200;  301,600;  307,450
355,420;  335,200;  325,600;  327,450
355,499;  324,200;  294,600;  326,450
355,578;  325,200;  321,600;  324,450
355,658;  318,200;  310,600;  346,450
355,737;  300,200;  312,600;  309,450
355,816;  325,200;  330,600;  333,450
355,896;  306,200;  300,600;  301,450
355,975;  290,200;  308,600;  294,450
356,054;  287,200;  316,600;  285,450
356,133;  296,200;  287,600;  314,450
356,213;  320,200;  318,600;  292,450
356,292;  289,200;  297,600;  276,450
356,371;  325,200;  331,600;  297,450
356,451;  301,200;  345,600;  294,450
356,530;  348,200;  357,600;  319,450
356,609;  318,200;  306,600;  286,450
356,688;  322,200;  314,600;  298,450
356,767;  292,200;  299,600;  290,450
356,846;  332,200;  346,600;  295,450
356,926;  342,200;  342,600;  361,450
357,005;  305,200;  332,600;  321,450
357,084;  267,200;  318,600;  321,450
357,163;  338,200;  335,600;  341,450
357,242;  294,200;  286,600;  337,450
357,321;  307,200;  322,600;  296,450
357,400;  310,200;  305,600;  310,450
357,479;  283,200;  336,600;  292,450
357,559;  299,200;  325,600;  314,450
357,638;  283,200;  312,600;  292,450
357,717;  313,200;  322,600;  304,450
357,796;  317,200;  348,600;  323,450
357,875;  301,200;  333,600;  316,450
357,954;  281,200;  312,600;  285,450
358,033;  285,200;  311,600;  278,450
358,112;  330,200;  302,600;  300,450
358,191;  314,200;  313,600;  289,450
358,270;  274,200;  266,600;  300,450
358,349;  320,200;  291,600;  324,450
358,428;  328,200;  321,600;  335,450
358,507;  323,200;  348,600;  306,450
358,585;  313,200;  318,600;  326,450
358,664;  327,200;  318,600;  340,450
358,743;  306,200;  293,600;  304,450
358,822;  340,200;  354,600;  329,450
358,901;  283,200;  275,600;  303,450
358,980;  284,200;  308,600;  299,450
359,059;  347,200;  326,600;  326,450
359,138;  315,200;  308,600;  324,450
359,216;  330,200;  320,600;  314,450
359,295;  291,200;  325,600;  329,450
359,374;  310,200;  335,600;  301,450
359,453;  289,200;  340,600;  315,450
359,532;  305,200;  307,600;  310,450
359,610;  305,200;  315,600;  307,450
359,689;  311,200;  324,600;  330,450
359,768;  319,200;  305,600;  294,450
359,847;  292,200;  313,600;  287,450
359,925;  328,200;  303,600;  315,450
360,004;  300,200;  295,600;  289,450
360,083;  289,200;  299,600;  319,450
360,161;  293,200;  314,600;  285,450
360,240;  302,200;  272,600;  289,450
360,319;  310,200;  323,600;  309,450
360,397;  336,200;  313,600;  320,450
360,476;  298,200;  291,600;  325,450
360,555;  334,200;  334,600;  340,450
360,633;  315,200;  287,600;  300,450
360,712;  285,200;  299,600;  264,450
360,790;  336,200;  314,600;  320,450
360,869;  303,200;  297,600;  296,450
360,948;  297,200;  278,600;  334,450
361,026;  295,200;  321,600;  276,450
361,105;  322,200;  305,600;  290,450
361,183;  332,200;  294,600;  286,450
361,262;  313,200;  300,600;  280,450
361,340;  288,200;  318,600;  297,450
361,419;  277,200;  282,600;  250,450
361,497;  321,200;  300,600;  335,450
361,576;  290,200;  292,600;  315,450
361,654;  328,200;  361,600;  322,450
361,733;  280,200;  320,600;  300,450
361,811;  322,200;  320,600;  311,450
361,890;  282,200;  267,600;  289,450
361,968;  325,200;  269,600;  303,450
362,046;  292,200;  334,600;  321,450
362,125;  338,200;  353,600;  326,450
362,203;  315,200;  297,600;  287,450
362,282;  323,200;  319,600;  338,450
362,360;  300,200;  296,600;  307,450
362,438;  316,200;  310,600;  302,450
362,517;  373,200;  346,600;  347,450
362,595;  363,200;  312,600;  351,450
362,673;  335,200;  323,600;  317,450
362,752;  340,200;  349,600;  327,450
362,830;  342,200;  338,600;  349,450
362,908;  342,200;  310,600;  307,450
362,986;  321,200;  335,600;  315,450
363,065;  321,200;  313,600;  344,450
363,143;  374,200;  354,600;  367,450
363,221;  319,200;  302,600;  288,450
363,299;  289,200;  304,600;  309,450
363,378;  314,200;  297,600;  335,450
363,456;  286,200;  286,600;  316,450
363,534;  315,200;  318,600;  323,450
363,612;  329,200;  320,600;  312,450
363,690;  346,200;  319,600;  344,450
363,769;  349,200;  340,600;  345,450
363,847;  335,200;  308,600;  356,450
363,925;  317,200;  282,600;  303,450
364,003;  380,200;  343,600;  348,450
364,081;  333,200;  323,600;  338,450
364,159;  340,200;  325,600;  330,450
364,237;  341,200;  351,600;  326,450
364,315;  296,200;  306,600;  311,450
364,393;  340,200;  363,600;  340,450
364,471;  342,200;  345,600;  315,450
364,549;  346,200;  344,600;  337,450
364,627;  366,200;  339,600;  321,450
364,705;  366,200;  344,600;  299,450
364,783;  396,200;  417,600;  294,450
364,861; 1039,200; 1050,600;  311,450
364,939; 3601,200; 3619,600;  304,450
365,017;  727,200;  723,600;  298,450
365,095;  355,200;  341,600;  327,450
365,173;  374,200;  398,600;  335,450
365,251;  361,200;  356,600;  345,450
365,329;  528,200;  527,600;  344,450
365,407; 1211,200; 1155,600;  315,450
365,485;  433,200;  464,600;  377,450
365,563;  337,200;  354,600;  339,450
365,641;  312,200;  327,600;  316,450
365,719;  334,200;  361,600;  314,450
365,796;  333,200;  329,600;  309,450
365,874;  342,200;  329,600;  354,450
365,952;  286,200;  334,600;  297,450
366,030;  314,200;  311,600;  318,450
366,108;  363,200;  336,600;  325,450
366,185;  616,200;  644,600;  330,450
366,263;  861,200;  880,600;  333,450
366,341;  389,200;  362,600;  310,450
366,419;  331,200;  335,600;  319,450
366,496;  385,200;  347,600;  336,450
366,574;  322,200;  299,600;  321,450
366,652;  328,200;  381,600;  324,450
366,730;  364,200;  336,600;  375,450
366,807;  319,200;  317,600;  335,450
366,885;  300,200;  315,600;  340,450
366,963;  349,200;  305,600;  332,450
367,040;  340,200;  348,600;  348,450
367,118;  330,200;  315,600;  299,450
367,196;  335,200;  322,600;  355,450
367,273;  306,200;  331,600;  352,450
367,351;  312,200;  314,600;  320,450
367,428;  360,200;  351,600;  360,450
367,506;  319,200;  361,600;  305,450
367,584;  329,200;  352,600;  377,450
367,661;  327,200;  329,600;  332,450
367,739;  324,200;  328,600;  328,450
367,816;  354,200;  343,600;  292,450
367,894;  365,200;  368,600;  312,450
367,971;  316,200;  309,600;  328,450
368,049;  341,200;  376,600;  316,450
368,126;  328,200;  329,600;  318,450
368,204;  359,200;  333,600;  342,450
368,281;  344,200;  375,600;  360,450
368,359;  340,200;  352,600;  332,450
368,436;  350,200;  349,600;  336,450
368,514;  350,200;  344,600;  337,450
368,591;  343,200;  344,600;  347,450
368,668;  338,200;  375,600;  336,450
368,746;  352,200;  387,600;  352,450
368,823;  325,200;  338,600;  380,450
368,901;  333,200;  325,600;  328,450
368,978;  377,200;  329,600;  311,450
369,055;  365,200;  339,600;  332,450
369,133;  328,200;  371,600;  352,450
369,210;  326,200;  328,600;  366,450
369,287;  366,200;  364,600;  366,450
369,365;  336,200;  380,600;  367,450
369,442;  348,200;  347,600;  350,450
369,519;  276,200;  321,600;  298,450
369,596;  361,200;  359,600;  339,450
369,674;  323,200;  327,600;  283,450
369,751;  372,200;  337,600;  371,450
369,828;  330,200;  351,600;  337,450
369,905;  360,200;  358,600;  377,450
369,983;  342,200;  305,600;  327,450
370,060;  359,200;  323,600;  301,450
370,137;  370,200;  394,600;  401,450
370,214;  345,200;  321,600;  374,450
370,291;  356,200;  350,600;  340,450
370,368;  339,200;  356,600;  383,450
370,446;  341,200;  301,600;  350,450
370,523;  341,200;  360,600;  316,450
370,600;  332,200;  368,600;  319,450
370,677;  334,200;  348,600;  332,450
370,754;  347,200;  343,600;  331,450
370,831;  330,200;  352,600;  343,450
370,908;  328,200;  347,600;  374,450
370,985;  356,200;  333,600;  281,450
371,062;  327,200;  341,600;  344,450
371,139;  361,200;  361,600;  363,450
371,216;  357,200;  351,600;  347,450
371,293;  346,200;  329,600;  359,450
371,370;  308,200;  322,600;  314,450
371,447;  355,200;  346,600;  342,450
371,524;  332,200;  346,600;  357,450
371,601;  352,200;  371,600;  341,450
371,678;  349,200;  350,600;  355,450
371,755;  354,200;  366,600;  335,450
371,832;  357,200;  370,600;  375,450
371,909;  344,200;  370,600;  318,450
371,986;  336,200;  371,600;  394,450
372,063;  350,200;  324,600;  329,450
372,140;  335,200;  342,600;  359,450
372,216;  362,200;  356,600;  331,450
372,293;  352,200;  310,600;  347,450
372,370;  376,200;  375,600;  357,450
372,447;  349,200;  329,600;  372,450
372,524;  345,200;  350,600;  371,450
372,601;  345,200;  369,600;  321,450
372,677;  336,200;  344,600;  333,450
372,754;  314,200;  355,600;  360,450
372,831;  322,200;  356,600;  354,450
372,908;  338,200;  380,600;  385,450
372,984;  374,200;  362,600;  356,450
373,061;  350,200;  317,600;  334,450
373,138;  357,200;  367,600;  366,450
373,215;  329,200;  329,600;  317,450
373,291;  363,200;  347,600;  356,450
373,368;  337,200;  378,600;  362,450
373,445;  349,200;  374,600;  345,450
373,521;  358,200;  355,600;  341,450
373,598;  318,200;  354,600;  314,450
373,675;  325,200;  335,600;  358,450
373,751;  332,200;  336,600;  357,450
373,828;  372,200;  338,600;  346,450
373,904;  389,200;  409,600;  394,450
373,981;  317,200;  340,600;  337,450
374,057;  320,200;  343,600;  341,450
374,134;  344,200;  339,600;  316,450
374,211;  342,200;  330,600;  339,450
374,287;  334,200;  336,600;  339,450
374,364;  346,200;  379,600;  370,450
374,440;  308,200;  279,600;  284,450
374,517;  344,200;  367,600;  360,450
374,593;  317,200;  326,600;  299,450
374,670;  355,200;  335,600;  311,450
374,746;  363,200;  347,600;  339,450
374,823;  384,200;  389,600;  364,450
374,899;  388,200;  353,600;  394,450
374,975;  330,200;  336,600;  333,450
375,052;  295,200;  327,600;  327,450
375,128;  287,200;  281,600;  339,450
375,205;  330,200;  346,600;  378,450
375,281;  344,200;  294,600;  331,450
375,357;  363,200;  371,600;  352,450
375,434;  325,200;  313,600;  355,450
375,510;  349,200;  354,600;  323,450
375,586;  343,200;  356,600;  351,450
375,663;  338,200;  314,600;  307,450
375,739;  351,200;  355,600;  380,450
375,815;  346,200;  340,600;  317,450
375,892;  344,200;  340,600;  341,450
375,968;  333,200;  313,600;  325,450
376,044;  325,200;  370,600;  333,450
376,120;  309,200;  311,600;  364,450
376,197;  353,200;  361,600;  328,450
376,273;  336,200;  347,600;  334,450
376,349;  392,200;  386,600;  368,450
376,425;  316,200;  378,600;  336,450
376,501;  326,200;  329,600;  348,450
376,578;  368,200;  332,600;  426,450
376,654;  410,200;  393,600;  365,450
376,730;  344,200;  340,600;  352,450
376,806;  364,200;  346,600;  382,450
376,882;  355,200;  376,600;  332,450
376,958;  360,200;  367,600;  347,450
377,034;  311,200;  320,600;  296,450
377,111;  364,200;  393,600;  358,450
377,187;  382,200;  410,600;  383,450
377,263;  387,200;  397,600;  372,450
377,339;  340,200;  341,600;  319,450
377,415;  365,200;  339,600;  356,450
377,491;  338,200;  362,600;  325,450
377,567;  325,200;  340,600;  369,450
377,643;  361,200;  376,600;  362,450
377,719;  368,200;  368,600;  351,450
377,795;  330,200;  313,600;  350,450
377,871;  363,200;  366,600;  386,450
377,947;  334,200;  343,600;  352,450
378,023;  362,200;  355,600;  339,450
378,099;  322,200;  325,600;  367,450
378,174;  361,200;  364,600;  365,450
378,250;  355,200;  372,600;  389,450
378,326;  321,200;  369,600;  382,450
378,402;  353,200;  359,600;  343,450
378,478;  343,200;  340,600;  355,450
378,554;  366,200;  347,600;  374,450
378,630;  339,200;  369,600;  336,450
378,706;  352,200;  364,600;  321,450
378,781;  380,200;  387,600;  385,450
378,857;  369,200;  359,600;  347,450
378,933;  379,200;  359,600;  335,450
379,009;  355,200;  346,600;  342,450
379,085;  408,200;  419,600;  384,450
379,160;  358,200;  381,600;  366,450
379,236;  390,200;  359,600;  361,450
379,312;  343,200;  337,600;  365,450
379,387;  353,200;  372,600;  349,450
379,463;  380,200;  355,600;  344,450
379,539;  381,200;  408,600;  387,450
379,615;  341,200;  337,600;  364,450
379,690;  395,200;  420,600;  410,450
379,766;  398,200;  389,600;  370,450
379,842;  360,200;  385,600;  366,450
379,917;  362,200;  389,600;  369,450
379,993;  368,200;  370,600;  358,450
380,068;  363,200;  341,600;  349,450
380,144;  387,200;  398,600;  393,450
380,220;  392,200;  388,600;  391,450
380,295;  345,200;  356,600;  356,450
380,371;  360,200;  358,600;  361,450
380,446;  373,200;  418,600;  376,450
380,522;  329,200;  340,600;  360,450
380,597;  348,200;  377,600;  349,450
380,673;  392,200;  395,600;  384,450
380,748;  358,200;  338,600;  344,450
380,824;  362,200;  364,600;  362,450
380,899;  390,200;  371,600;  364,450
380,975;  356,200;  388,600;  402,450
381,050;  348,200;  363,600;  336,450
381,126;  357,200;  370,600;  362,450
381,201;  393,200;  407,600;  405,450
381,277;  371,200;  367,600;  390,450
381,352;  400,200;  389,600;  377,450
381,427;  372,200;  359,600;  370,450
381,503;  350,200;  394,600;  377,450
381,578;  358,200;  363,600;  360,450
381,653;  365,200;  381,600;  387,450
381,729;  328,200;  346,600;  360,450
381,804;  358,200;  373,600;  375,450
381,879;  359,200;  380,600;  366,450
381,955;  329,200;  343,600;  346,450
382,030;  332,200;  346,600;  339,450
382,105;  366,200;  372,600;  372,450
382,181;  371,200;  382,600;  367,450
382,256;  375,200;  373,600;  383,450
382,331;  366,200;  371,600;  375,450
382,406;  340,200;  368,600;  343,450
382,482;  337,200;  371,600;  380,450
382,557;  333,200;  362,600;  335,450
382,632;  369,200;  364,600;  365,450
382,707;  357,200;  393,600;  349,450
382,782;  340,200;  395,600;  385,450
382,857;  350,200;  373,600;  356,450
382,933;  336,200;  354,600;  349,450
383,008;  342,200;  325,600;  336,450
383,083;  366,200;  382,600;  360,450
383,158;  378,200;  375,600;  368,450
383,233;  365,200;  368,600;  362,450
383,308;  354,200;  360,600;  326,450
383,383;  381,200;  394,600;  390,450
383,458;  339,200;  344,600;  340,450
383,533;  333,200;  331,600;  334,450
383,608;  378,200;  367,600;  381,450
383,683;  405,200;  381,600;  367,450
383,758;  414,200;  398,600;  353,450
383,833;  333,200;  343,600;  350,450
383,908;  328,200;  321,600;  367,450
383,983;  331,200;  365,600;  328,450
384,058;  372,200;  340,600;  383,450
384,133;  353,200;  372,600;  376,450
384,208;  376,200;  395,600;  375,450
384,283;  342,200;  362,600;  321,450
384,358;  375,200;  392,600;  390,450
384,433;  366,200;  347,600;  341,450
384,508;  336,200;  339,600;  338,450
384,583;  354,200;  337,600;  355,450
384,658;  373,200;  352,600;  366,450
384,732;  339,200;  329,600;  319,450
384,807;  353,200;  347,600;  366,450
384,882;  360,200;  391,600;  349,450
384,957;  359,200;  348,600;  345,450
385,032;  368,200;  383,600;  373,450
385,106;  369,200;  342,600;  369,450
385,181;  352,200;  353,600;  359,450
385,256;  352,200;  367,600;  336,450
385,331;  349,200;  375,600;  364,450
385,405;  388,200;  383,600;  400,450
385,480;  340,200;  362,600;  372,450
385,555;  394,200;  402,600;  399,450
385,630;  386,200;  369,600;  370,450
385,704;  394,200;  353,600;  390,450
385,779;  354,200;  363,600;  368,450
385,854;  356,200;  364,600;  380,450
385,928;  353,200;  348,600;  365,450
386,003;  417,200;  390,600;  397,450
386,078;  357,200;  374,600;  369,450
386,152;  389,200;  391,600;  412,450
386,227;  318,200;  347,600;  354,450
386,301;  376,200;  389,600;  348,450
386,376;  320,200;  352,600;  346,450
386,450;  344,200;  356,600;  374,450
386,525;  378,200;  357,600;  376,450
386,600;  371,200;  367,600;  381,450
386,674;  346,200;  374,600;  364,450
386,749;  374,200;  395,600;  359,450
386,823;  368,200;  363,600;  377,450
386,898;  355,200;  386,600;  374,450
386,972;  359,200;  383,600;  354,450
387,047;  387,200;  368,600;  364,450
387,121;  367,200;  375,600;  363,450
387,195;  340,200;  359,600;  352,450
387,270;  369,200;  384,600;  385,450
387,344;  397,200;  429,600;  393,450
387,419;  399,200;  367,600;  412,450
387,493;  365,200;  371,600;  377,450
387,567;  332,200;  351,600;  336,450
387,642;  412,200;  383,600;  402,450
387,716;  366,200;  368,600;  378,450
387,790;  351,200;  337,600;  366,450
387,865;  356,200;  351,600;  364,450
387,939;  398,200;  405,600;  406,450
388,013;  350,200;  377,600;  417,450
388,088;  361,200;  361,600;  363,450
388,162;  341,200;  366,600;  355,450
388,236;  388,200;  381,600;  416,450
388,310;  345,200;  368,600;  361,450
388,385;  391,200;  324,600;  400,450
388,459;  364,200;  362,600;  379,450
388,533;  350,200;  378,600;  365,450
388,607;  366,200;  374,600;  378,450
388,682;  380,200;  369,600;  394,450
388,756;  363,200;  375,600;  378,450
388,830;  372,200;  378,600;  413,450
388,904;  361,200;  382,600;  382,450
388,978;  345,200;  368,600;  361,450
389,052;  384,200;  390,600;  343,450
389,126;  319,200;  353,600;  387,450
389,200;  394,200;  376,600;  362,450
389,275;  340,200;  382,600;  389,450
389,349;  372,200;  405,600;  380,450
389,423;  360,200;  380,600;  369,450
389,497;  383,200;  426,600;  377,450
389,571;  375,200;  391,600;  375,450
389,645;  366,200;  378,600;  388,450
389,719;  354,200;  384,600;  388,450
389,793;  360,200;  341,600;  322,450
389,867;  413,200;  410,600;  386,450
389,941;  323,200;  367,600;  369,450
390,015;  365,200;  348,600;  372,450
390,089;  363,200;  369,600;  344,450
390,163;  376,200;  368,600;  375,450
390,237;  390,200;  356,600;  361,450
390,310;  375,200;  393,600;  366,450
390,384;  362,200;  383,600;  344,450
390,458;  405,200;  414,600;  432,450
390,532;  410,200;  401,600;  395,450
390,606;  369,200;  361,600;  328,450
390,680;  375,200;  354,600;  373,450
390,754;  353,200;  373,600;  342,450
390,827;  388,200;  382,600;  388,450
390,901;  383,200;  362,600;  377,450
390,975;  364,200;  366,600;  368,450
391,049;  373,200;  374,600;  392,450
391,123;  364,200;  342,600;  367,450
391,196;  348,200;  344,600;  368,450
391,270;  369,200;  372,600;  366,450
391,344;  362,200;  384,600;  374,450
391,418;  356,200;  368,600;  366,450
391,491;  348,200;  362,600;  365,450
391,565;  358,200;  341,600;  346,450
391,639;  390,200;  379,600;  381,450
391,712;  369,200;  373,600;  385,450
391,786;  372,200;  401,600;  429,450
391,860;  368,200;  354,600;  354,450
391,933;  375,200;  366,600;  333,450
392,007;  373,200;  393,600;  364,450
392,081;  384,200;  404,600;  366,450
392,154;  362,200;  366,600;  394,450
392,228;  396,200;  392,600;  387,450
392,301;  365,200;  366,600;  402,450
392,375;  376,200;  394,600;  406,450
392,448;  366,200;  397,600;  375,450
392,522;  391,200;  382,600;  383,450
392,595;  398,200;  389,600;  365,450
392,669;  362,200;  386,600;  367,450
392,742;  380,200;  378,600;  401,450
392,816;  367,200;  376,600;  383,450
392,889;  395,200;  392,600;  401,450
392,963;  409,200;  400,600;  382,450
393,036;  375,200;  366,600;  401,450
393,110;  414,200;  388,600;  376,450
393,183;  387,200;  407,600;  399,450
393,257;  397,200;  437,600;  408,450
393,330;  390,200;  373,600;  391,450
393,403;  373,200;  410,600;  372,450
393,477;  357,200;  347,600;  364,450
393,550;  393,200;  413,600;  387,450
393,623;  386,200;  374,600;  402,450
393,697;  363,200;  404,600;  411,450
393,770;  370,200;  386,600;  364,450
393,843;  402,200;  419,600;  412,450
393,917;  402,200;  400,600;  407,450
393,990;  425,200;  378,600;  395,450
394,063;  377,200;  403,600;  375,450
394,136;  401,200;  390,600;  390,450
394,210;  381,200;  393,600;  380,450
394,283;  387,200;  385,600;  395,450
394,356;  416,200;  410,600;  373,450
394,429;  390,200;  399,600;  357,450
394,502;  334,200;  404,600;  373,450
394,576;  418,200;  416,600;  404,450
394,649;  379,200;  376,600;  381,450
394,722;  394,200;  390,600;  390,450
394,795;  421,200;  413,600;  406,450
394,868;  397,200;  369,600;  390,450
394,941;  379,200;  371,600;  368,450
395,014;  405,200;  419,600;  416,450
395,088;  379,200;  404,600;  391,450
395,161;  384,200;  402,600;  399,450
395,234;  396,200;  390,600;  397,450
395,307;  397,200;  413,600;  388,450
395,380;  416,200;  393,600;  392,450
395,453;  459,200;  439,600;  425,450
395,526;  426,200;  430,600;  407,450
395,599;  408,200;  422,600;  432,450
395,672;  392,200;  378,600;  408,450
395,745;  372,200;  400,600;  390,450
395,818;  379,200;  385,600;  376,450
395,891;  373,200;  408,600;  379,450
395,964;  358,200;  398,600;  436,450
396,036;  372,200;  400,600;  390,450
396,109;  386,200;  399,600;  381,450
396,182;  393,200;  392,600;  382,450
396,255;  406,200;  417,600;  383,450
396,328;  431,200;  412,600;  432,450
396,401;  364,200;  363,600;  381,450
396,474;  365,200;  399,600;  360,450
396,547;  406,200;  411,600;  417,450
396,619;  359,200;  384,600;  393,450
396,692;  401,200;  371,600;  354,450
396,765;  344,200;  375,600;  376,450
396,838;  402,200;  367,600;  390,450
396,911;  361,200;  363,600;  352,450
396,983;  423,200;  385,600;  396,450
397,056;  360,200;  375,600;  367,450
397,129;  392,200;  369,600;  368,450
397,201;  379,200;  413,600;  395,450
397,274;  380,200;  379,600;  382,450
397,347;  349,200;  364,600;  378,450
397,420;  408,200;  373,600;  379,450
397,492;  354,200;  404,600;  380,450
397,565;  353,200;  372,600;  365,450
397,637;  372,200;  371,600;  361,450
397,710;  348,200;  349,600;  341,450
397,783;  412,200;  444,600;  401,450
397,855;  341,200;  363,600;  346,450
397,928;  378,200;  381,600;  330,450
398,000;  386,200;  369,600;  384,450
398,073;  372,200;  376,600;  372,450
398,146;  358,200;  365,600;  358,450
398,218;  376,200;  417,600;  363,450
398,291;  383,200;  398,600;  385,450
398,363;  369,200;  370,600;  358,450
398,436;  350,200;  369,600;  360,450
398,508;  359,200;  378,600;  369,450
398,581;  400,200;  368,600;  367,450
398,653;  381,200;  318,600;  382,450
398,726;  378,200;  376,600;  371,450
398,798;  403,200;  390,600;  376,450
398,870;  379,200;  374,600;  374,450
398,943;  374,200;  371,600;  357,450
399,015;  372,200;  362,600;  383,450
399,088;  381,200;  377,600;  373,450
399,160;  347,200;  370,600;  348,450
399,232;  335,200;  332,600;  349,450
399,305;  373,200;  379,600;  362,450
399,377;  370,200;  350,600;  343,450
399,449;  370,200;  398,600;  388,450
399,522;  421,200;  442,600;  416,450
399,594;  361,200;  359,600;  346,450
399,666;  366,200;  393,600;  361,450
399,738;  383,200;  378,600;  375,450
399,811;  369,200;  370,600;  388,450
399,883;  396,200;  392,600;  378,450
399,955;  388,200;  429,600;  331,450
400,027;  329,200;  342,600;  364,450
400,100;  391,200;  402,600;  427,450
400,172;  346,200;  360,600;  354,450
400,244;  368,200;  369,600;  361,450
400,316;  390,200;  396,600;  381,450
400,388;  396,200;  408,600;  368,450
400,460;  345,200;  350,600;  359,450
400,532;  343,200;  329,600;  337,450
400,605;  368,200;  378,600;  368,450
400,677;  441,200;  389,600;  380,450
400,749;  402,200;  403,600;  406,450
400,821;  400,200;  384,600;  385,450
400,893;  371,200;  364,600;  384,450
400,965;  366,200;  390,600;  380,450
401,037;  378,200;  376,600;  402,450
401,109;  355,200;  363,600;  365,450
401,181;  380,200;  383,600;  398,450

