p10promedio
Integration time [ms]:   0,150
Averaging Nr. [scans]: 10
Smoothing Nr. [pixels]: 0
Data measured with spectrometer [name]: 7416147SP
Wave   ;Sample   ;Dark     ;Reference
[nm]   ;[counts] ;[counts] ;[counts] 

230,218;  293,650;  284,600;  274,450
230,311;  319,350;  306,600;  296,450
230,404;  301,850;  298,600;  326,450
230,497;  318,050;  295,600;  309,450
230,591;  328,250;  342,600;  328,450
230,684;  319,650;  317,600;  333,450
230,777;  311,750;  318,600;  312,450
230,870;  305,750;  330,600;  321,450
230,964;  302,750;  321,600;  306,450
231,057;  346,750;  306,600;  332,450
231,150;  324,450;  320,600;  304,450
231,243;  317,450;  310,600;  310,450
231,336;  316,650;  334,600;  326,450
231,430;  320,750;  320,600;  279,450
231,523;  327,850;  346,600;  304,450
231,616;  303,050;  297,600;  290,450
231,709;  342,150;  328,600;  315,450
231,802;  315,050;  280,600;  295,450
231,895;  300,050;  293,600;  313,450
231,988;  327,650;  312,600;  320,450
232,082;  306,450;  316,600;  281,450
232,175;  317,350;  289,600;  279,450
232,268;  302,950;  319,600;  301,450
232,361;  303,450;  288,600;  264,450
232,454;  326,150;  297,600;  320,450
232,547;  323,650;  333,600;  272,450
232,640;  297,550;  314,600;  287,450
232,733;  320,850;  297,600;  300,450
232,826;  302,750;  303,600;  270,450
232,919;  316,350;  318,600;  294,450
233,012;  292,750;  322,600;  292,450
233,105;  303,250;  318,600;  283,450
233,199;  304,150;  324,600;  298,450
233,292;  298,150;  293,600;  307,450
233,385;  272,150;  262,600;  233,450
233,478;  298,350;  302,600;  272,450
233,571;  331,650;  314,600;  293,450
233,664;  315,650;  341,600;  283,450
233,757;  272,850;  254,600;  231,450
233,850;  287,050;  272,600;  248,450
233,943;  299,450;  298,600;  272,450
234,035;  302,350;  318,600;  292,450
234,128;  291,850;  282,600;  265,450
234,221;  304,750;  310,600;  293,450
234,314;  295,550;  333,600;  318,450
234,407;  326,250;  338,600;  286,450
234,500;  284,050;  286,600;  280,450
234,593;  302,150;  280,600;  290,450
234,686;  305,550;  276,600;  256,450
234,779;  286,550;  270,600;  275,450
234,872;  287,550;  276,600;  261,450
234,965;  300,850;  298,600;  286,450
235,058;  289,550;  269,600;  263,450
235,150;  297,550;  311,600;  286,450
235,243;  297,450;  280,600;  311,450
235,336;  314,650;  317,600;  296,450
235,429;  274,350;  258,600;  241,450
235,522;  345,250;  352,600;  293,450
235,615;  270,350;  309,600;  253,450
235,707;  288,350;  289,600;  277,450
235,800;  306,350;  302,600;  268,450
235,893;  300,050;  328,600;  262,450
235,986;  304,450;  305,600;  312,450
236,079;  286,150;  310,600;  308,450
236,171;  285,050;  272,600;  270,450
236,264;  319,750;  310,600;  282,450
236,357;  299,850;  289,600;  297,450
236,450;  312,050;  314,600;  308,450
236,542;  272,750;  286,600;  258,450
236,635;  320,250;  319,600;  287,450
236,728;  279,350;  276,600;  273,450
236,821;  283,350;  270,600;  268,450
236,913;  275,650;  326,600;  268,450
237,006;  272,550;  300,600;  257,450
237,099;  288,850;  289,600;  271,450
237,191;  309,050;  345,600;  288,450
237,284;  272,450;  256,600;  282,450
237,377;  299,950;  294,600;  312,450
237,470;  296,650;  291,600;  256,450
237,562;  281,050;  266,600;  261,450
237,655;  326,950;  342,600;  294,450
237,747;  295,850;  325,600;  263,450
237,840;  324,950;  292,600;  302,450
237,933;  307,150;  327,600;  284,450
238,025;  319,350;  338,600;  306,450
238,118;  286,050;  306,600;  287,450
238,211;  283,850;  282,600;  227,450
238,303;  271,350;  277,600;  273,450
238,396;  266,550;  289,600;  270,450
238,488;  296,650;  300,600;  281,450
238,581;  296,650;  306,600;  235,450
238,673;  290,050;  304,600;  273,450
238,766;  303,150;  268,600;  282,450
238,859;  276,650;  282,600;  277,450
238,951;  290,650;  295,600;  280,450
239,044;  282,250;  270,600;  283,450
239,136;  273,550;  269,600;  284,450
239,229;  286,450;  297,600;  291,450
239,321;  278,550;  262,600;  248,450
239,414;  308,350;  289,600;  288,450
239,506;  283,850;  280,600;  267,450
239,599;  333,850;  352,600;  292,450
239,691;  290,450;  306,600;  269,450
239,784;  310,250;  296,600;  288,450
239,876;  301,750;  280,600;  288,450
239,969;  288,050;  287,600;  281,450
240,061;  286,350;  277,600;  262,450
240,153;  288,550;  260,600;  278,450
240,246;  294,950;  295,600;  292,450
240,338;  314,450;  309,600;  324,450
240,431;  280,950;  277,600;  282,450
240,523;  276,650;  300,600;  237,450
240,615;  305,350;  293,600;  321,450
240,708;  324,550;  355,600;  292,450
240,800;  299,750;  302,600;  288,450
240,893;  279,450;  274,600;  261,450
240,985;  288,250;  321,600;  270,450
241,077;  274,150;  268,600;  262,450
241,170;  295,150;  313,600;  286,450
241,262;  303,850;  284,600;  284,450
241,354;  259,150;  246,600;  244,450
241,447;  293,850;  286,600;  271,450
241,539;  278,250;  295,600;  247,450
241,631;  330,150;  312,600;  279,450
241,724;  273,550;  261,600;  246,450
241,816;  278,050;  258,600;  264,450
241,908;  284,150;  278,600;  263,450
242,000;  282,850;  283,600;  263,450
242,093;  297,550;  303,600;  261,450
242,185;  287,250;  306,600;  269,450
242,277;  286,750;  282,600;  242,450
242,369;  289,150;  278,600;  269,450
242,462;  285,050;  271,600;  247,450
242,554;  283,350;  253,600;  266,450
242,646;  278,750;  282,600;  270,450
242,738;  320,450;  320,600;  281,450
242,830;  264,550;  292,600;  230,450
242,923;  299,550;  309,600;  303,450
243,015;  274,550;  288,600;  269,450
243,107;  267,650;  280,600;  253,450
243,199;  282,350;  309,600;  300,450
243,291;  279,650;  319,600;  253,450
243,383;  249,850;  240,600;  273,450
243,476;  271,550;  257,600;  282,450
243,568;  287,850;  293,600;  284,450
243,660;  287,050;  260,600;  268,450
243,752;  289,750;  305,600;  270,450
243,844;  312,050;  299,600;  284,450
243,936;  293,050;  316,600;  299,450
244,028;  305,750;  332,600;  290,450
244,120;  260,150;  267,600;  230,450
244,212;  296,550;  298,600;  289,450
244,305;  265,350;  267,600;  270,450
244,397;  295,250;  315,600;  267,450
244,489;  319,850;  303,600;  285,450
244,581;  309,250;  301,600;  279,450
244,673;  289,250;  286,600;  252,450
244,765;  299,850;  277,600;  293,450
244,857;  296,850;  303,600;  251,450
244,949;  300,650;  305,600;  282,450
245,041;  255,750;  250,600;  223,450
245,133;  299,950;  294,600;  292,450
245,225;  281,250;  258,600;  248,450
245,317;  286,150;  253,600;  267,450
245,409;  273,850;  282,600;  263,450
245,501;  296,050;  286,600;  265,450
245,593;  299,050;  328,600;  278,450
245,685;  291,050;  330,600;  286,450
245,776;  293,450;  298,600;  267,450
245,868;  283,650;  308,600;  263,450
245,960;  262,650;  242,600;  252,450
246,052;  307,850;  291,600;  307,450
246,144;  303,750;  282,600;  285,450
246,236;  291,150;  296,600;  257,450
246,328;  290,450;  285,600;  287,450
246,420;  282,950;  282,600;  270,450
246,512;  309,550;  303,600;  295,450
246,604;  289,950;  280,600;  278,450
246,695;  274,450;  275,600;  268,450
246,787;  307,650;  288,600;  299,450
246,879;  297,450;  296,600;  275,450
246,971;  306,050;  305,600;  285,450
247,063;  279,750;  281,600;  253,450
247,155;  309,950;  295,600;  240,450
247,246;  284,450;  305,600;  285,450
247,338;  300,450;  297,600;  287,450
247,430;  312,750;  298,600;  312,450
247,522;  314,450;  294,600;  294,450
247,613;  307,950;  287,600;  278,450
247,705;  298,250;  302,600;  286,450
247,797;  313,250;  322,600;  301,450
247,889;  317,250;  294,600;  286,450
247,980;  317,650;  318,600;  273,450
248,072;  322,250;  315,600;  275,450
248,164;  340,350;  368,600;  297,450
248,256;  293,750;  280,600;  302,450
248,347;  322,450;  312,600;  275,450
248,439;  286,650;  302,600;  260,450
248,531;  311,050;  301,600;  297,450
248,622;  313,550;  315,600;  318,450
248,714;  281,950;  303,600;  257,450
248,806;  306,750;  301,600;  287,450
248,897;  297,750;  266,600;  290,450
248,989;  269,050;  260,600;  246,450
249,081;  287,750;  291,600;  305,450
249,172;  292,150;  289,600;  264,450
249,264;  285,450;  310,600;  303,450
249,356;  284,350;  274,600;  253,450
249,447;  288,450;  287,600;  283,450
249,539;  292,850;  289,600;  288,450
249,630;  302,350;  296,600;  286,450
249,722;  335,150;  310,600;  305,450
249,813;  296,050;  302,600;  256,450
249,905;  307,350;  319,600;  291,450
249,997;  284,450;  270,600;  248,450
250,088;  297,250;  295,600;  285,450
250,180;  287,150;  280,600;  288,450
250,271;  287,150;  296,600;  268,450
250,363;  332,650;  329,600;  307,450
250,454;  294,350;  268,600;  238,450
250,546;  296,150;  271,600;  272,450
250,637;  274,150;  285,600;  242,450
250,729;  289,150;  267,600;  250,450
250,820;  305,150;  306,600;  297,450
250,912;  287,650;  299,600;  243,450
251,003;  283,150;  285,600;  296,450
251,095;  301,650;  296,600;  273,450
251,186;  293,250;  269,600;  253,450
251,277;  282,050;  276,600;  290,450
251,369;  297,850;  295,600;  275,450
251,460;  292,350;  272,600;  272,450
251,552;  288,650;  293,600;  292,450
251,643;  298,250;  292,600;  276,450
251,735;  301,550;  303,600;  241,450
251,826;  297,450;  313,600;  259,450
251,917;  327,650;  325,600;  258,450
252,009;  327,750;  338,600;  254,450
252,100;  330,250;  343,600;  266,450
252,191;  352,650;  337,600;  260,450
252,283;  342,550;  328,600;  299,450
252,374;  372,450;  372,600;  289,450
252,465;  399,850;  390,600;  301,450
252,557;  381,250;  393,600;  251,450
252,648;  385,150;  378,600;  258,450
252,739;  428,250;  397,600;  267,450
252,831;  421,450;  439,600;  250,450
252,922;  454,750;  440,600;  266,450
253,013;  488,050;  520,600;  241,450
253,104;  571,550;  576,600;  255,450
253,196;  682,850;  712,600;  265,450
253,287;  836,750;  807,600;  289,450
253,378; 1203,250; 1233,600;  257,450
253,469; 4214,150; 4083,600;  246,450
253,561;23074,250;23239,600;  253,450
253,652;41937,250;42949,602;  272,450
253,743; 5719,250; 5893,600;  210,450
253,834;  622,450;  622,600;  260,450
253,926;  503,250;  531,600;  249,450
254,017;  467,450;  459,600;  280,450
254,108;  431,650;  528,600;  290,450
254,199;  425,450;  418,600;  277,450
254,290;  431,050;  380,600;  290,450
254,381;  415,850;  429,600;  276,450
254,472;  403,250;  437,600;  250,450
254,564;  406,150;  411,600;  327,450
254,655;  393,950;  392,600;  304,450
254,746;  353,050;  345,600;  225,450
254,837;  365,850;  372,600;  282,450
254,928;  345,850;  368,600;  247,450
255,019;  362,850;  375,600;  281,450
255,110;  361,950;  357,600;  302,450
255,201;  337,750;  318,600;  284,450
255,292;  374,150;  381,600;  271,450
255,383;  335,750;  347,600;  265,450
255,474;  324,950;  329,600;  248,450
255,566;  342,950;  366,600;  271,450
255,657;  345,250;  350,600;  306,450
255,748;  302,950;  292,600;  235,450
255,839;  305,250;  331,600;  282,450
255,930;  325,050;  292,600;  302,450
256,021;  334,050;  336,600;  297,450
256,112;  310,050;  296,600;  257,450
256,203;  340,250;  339,600;  315,450
256,294;  320,450;  321,600;  265,450
256,384;  301,250;  279,600;  261,450
256,475;  309,850;  289,600;  284,450
256,566;  297,750;  297,600;  274,450
256,657;  292,950;  291,600;  267,450
256,748;  293,450;  302,600;  280,450
256,839;  286,550;  281,600;  274,450
256,930;  293,550;  278,600;  260,450
257,021;  310,450;  328,600;  283,450
257,112;  309,350;  311,600;  327,450
257,203;  271,950;  268,600;  240,450
257,294;  270,550;  276,600;  257,450
257,385;  299,050;  284,600;  272,450
257,475;  293,850;  277,600;  255,450
257,566;  298,250;  313,600;  267,450
257,657;  293,750;  339,600;  264,450
257,748;  291,050;  283,600;  252,450
257,839;  284,750;  319,600;  306,450
257,930;  291,650;  276,600;  275,450
258,020;  269,750;  278,600;  281,450
258,111;  274,650;  285,600;  256,450
258,202;  296,250;  309,600;  258,450
258,293;  278,850;  267,600;  255,450
258,384;  311,450;  329,600;  295,450
258,474;  293,650;  296,600;  244,450
258,565;  269,550;  250,600;  252,450
258,656;  293,150;  306,600;  257,450
258,747;  274,850;  293,600;  255,450
258,837;  275,650;  266,600;  231,450
258,928;  287,850;  247,600;  280,450
259,019;  273,850;  272,600;  264,450
259,109;  273,450;  264,600;  254,450
259,200;  296,050;  292,600;  291,450
259,291;  267,950;  246,600;  297,450
259,381;  294,350;  309,600;  264,450
259,472;  287,150;  299,600;  272,450
259,563;  309,350;  307,600;  273,450
259,653;  287,350;  281,600;  247,450
259,744;  275,850;  280,600;  260,450
259,835;  308,550;  284,600;  274,450
259,925;  277,750;  257,600;  276,450
260,016;  298,350;  303,600;  282,450
260,107;  271,550;  264,600;  265,450
260,197;  282,050;  279,600;  258,450
260,288;  275,750;  263,600;  273,450
260,378;  272,450;  274,600;  244,450
260,469;  293,650;  299,600;  273,450
260,560;  264,950;  267,600;  276,450
260,650;  281,950;  269,600;  265,450
260,741;  278,250;  279,600;  256,450
260,831;  272,350;  246,600;  276,450
260,922;  269,550;  271,600;  258,450
261,012;  268,450;  271,600;  256,450
261,103;  314,650;  320,600;  294,450
261,193;  301,850;  317,600;  320,450
261,284;  274,150;  256,600;  254,450
261,374;  301,150;  295,600;  253,450
261,465;  283,950;  321,600;  304,450
261,555;  284,850;  271,600;  275,450
261,646;  301,650;  290,600;  300,450
261,736;  281,750;  265,600;  287,450
261,827;  284,450;  293,600;  256,450
261,917;  309,250;  294,600;  344,450
262,007;  276,550;  269,600;  289,450
262,098;  297,450;  334,600;  256,450
262,188;  334,750;  316,600;  305,450
262,279;  290,450;  290,600;  292,450
262,369;  280,950;  276,600;  282,450
262,459;  287,450;  262,600;  260,450
262,550;  308,250;  314,600;  290,450
262,640;  274,750;  261,600;  274,450
262,731;  298,850;  302,600;  298,450
262,821;  310,050;  287,600;  323,450
262,911;  303,650;  312,600;  268,450
263,002;  291,450;  278,600;  271,450
263,092;  309,550;  292,600;  309,450
263,182;  280,150;  280,600;  257,450
263,273;  277,550;  277,600;  261,450
263,363;  300,750;  309,600;  284,450
263,453;  269,550;  266,600;  259,450
263,543;  292,350;  289,600;  326,450
263,634;  269,150;  263,600;  262,450
263,724;  288,250;  278,600;  276,450
263,814;  303,250;  304,600;  288,450
263,904;  272,650;  270,600;  267,450
263,995;  327,050;  306,600;  321,450
264,085;  282,850;  301,600;  259,450
264,175;  295,350;  284,600;  306,450
264,265;  319,750;  305,600;  298,450
264,356;  271,150;  260,600;  289,450
264,446;  309,550;  296,600;  298,450
264,536;  298,250;  270,600;  297,450
264,626;  310,850;  315,600;  295,450
264,716;  291,450;  330,600;  277,450
264,806;  310,050;  327,600;  306,450
264,897;  254,150;  255,600;  273,450
264,987;  308,450;  310,600;  286,450
265,077;  307,150;  297,600;  285,450
265,167;  372,550;  394,600;  346,450
265,257;  328,550;  333,600;  273,450
265,347;  332,050;  331,600;  286,450
265,437;  315,650;  304,600;  289,450
265,527;  305,250;  314,600;  292,450
265,617;  294,050;  292,600;  265,450
265,708;  315,150;  330,600;  308,450
265,798;  306,750;  315,600;  301,450
265,888;  306,150;  275,600;  270,450
265,978;  300,050;  274,600;  242,450
266,068;  313,050;  291,600;  316,450
266,158;  295,150;  288,600;  254,450
266,248;  274,750;  305,600;  248,450
266,338;  312,950;  307,600;  293,450
266,428;  298,450;  294,600;  259,450
266,518;  311,550;  321,600;  320,450
266,608;  308,150;  245,600;  273,450
266,698;  268,550;  284,600;  256,450
266,788;  279,450;  263,600;  248,450
266,878;  321,350;  350,600;  317,450
266,968;  301,450;  282,600;  304,450
267,058;  302,550;  280,600;  292,450
267,147;  299,650;  327,600;  300,450
267,237;  284,750;  293,600;  276,450
267,327;  282,750;  292,600;  276,450
267,417;  296,750;  320,600;  264,450
267,507;  286,150;  297,600;  294,450
267,597;  275,050;  273,600;  272,450
267,687;  279,350;  268,600;  286,450
267,777;  281,550;  267,600;  270,450
267,867;  311,150;  321,600;  296,450
267,956;  294,350;  282,600;  257,450
268,046;  307,950;  306,600;  298,450
268,136;  293,650;  265,600;  291,450
268,226;  267,350;  269,600;  261,450
268,316;  269,150;  266,600;  262,450
268,406;  291,150;  268,600;  338,450
268,495;  279,650;  278,600;  259,450
268,585;  296,650;  304,600;  263,450
268,675;  277,950;  296,600;  260,450
268,765;  298,750;  296,600;  287,450
268,854;  277,250;  277,600;  291,450
268,944;  286,550;  288,600;  299,450
269,034;  277,950;  313,600;  279,450
269,124;  277,350;  283,600;  286,450
269,213;  285,350;  277,600;  255,450
269,303;  280,250;  290,600;  247,450
269,393;  300,950;  265,600;  307,450
269,483;  297,050;  338,600;  273,450
269,572;  273,550;  295,600;  243,450
269,662;  275,250;  286,600;  301,450
269,752;  314,450;  320,600;  299,450
269,841;  265,150;  270,600;  247,450
269,931;  290,250;  264,600;  276,450
270,021;  296,650;  299,600;  295,450
270,110;  278,350;  286,600;  268,450
270,200;  291,650;  329,600;  299,450
270,289;  267,050;  258,600;  279,450
270,379;  292,950;  315,600;  282,450
270,469;  286,150;  297,600;  273,450
270,558;  303,550;  300,600;  286,450
270,648;  269,050;  266,600;  245,450
270,737;  284,350;  288,600;  271,450
270,827;  306,250;  279,600;  263,450
270,916;  289,250;  266,600;  280,450
271,006;  285,250;  287,600;  287,450
271,096;  305,550;  312,600;  334,450
271,185;  280,850;  307,600;  299,450
271,275;  291,750;  305,600;  279,450
271,364;  275,850;  300,600;  286,450
271,454;  304,550;  301,600;  273,450
271,543;  299,550;  295,600;  279,450
271,633;  290,350;  293,600;  257,450
271,722;  286,250;  240,600;  257,450
271,812;  293,250;  255,600;  299,450
271,901;  289,050;  276,600;  286,450
271,990;  285,050;  293,600;  267,450
272,080;  278,650;  282,600;  284,450
272,169;  299,050;  339,600;  288,450
272,259;  288,250;  319,600;  275,450
272,348;  297,050;  291,600;  305,450
272,438;  293,150;  302,600;  301,450
272,527;  296,350;  288,600;  290,450
272,616;  302,350;  295,600;  300,450
272,706;  321,850;  319,600;  313,450
272,795;  302,950;  285,600;  290,450
272,884;  293,450;  302,600;  294,450
272,974;  302,350;  281,600;  279,450
273,063;  317,350;  361,600;  290,450
273,152;  298,450;  299,600;  296,450
273,242;  315,150;  296,600;  311,450
273,331;  312,350;  306,600;  299,450
273,420;  294,350;  296,600;  313,450
273,510;  299,850;  292,600;  311,450
273,599;  301,950;  323,600;  312,450
273,688;  288,950;  311,600;  299,450
273,778;  276,350;  266,600;  259,450
273,867;  315,350;  287,600;  312,450
273,956;  297,850;  303,600;  273,450
274,045;  264,050;  263,600;  236,450
274,135;  293,650;  317,600;  317,450
274,224;  281,050;  316,600;  295,450
274,313;  298,650;  299,600;  294,450
274,402;  272,350;  263,600;  266,450
274,491;  313,350;  277,600;  286,450
274,581;  292,550;  302,600;  266,450
274,670;  295,950;  311,600;  303,450
274,759;  301,050;  303,600;  283,450
274,848;  268,750;  275,600;  301,450
274,937;  286,150;  276,600;  293,450
275,026;  279,450;  298,600;  255,450
275,116;  316,250;  323,600;  309,450
275,205;  282,850;  263,600;  231,450
275,294;  322,650;  333,600;  302,450
275,383;  295,950;  253,600;  278,450
275,472;  295,550;  286,600;  299,450
275,561;  292,250;  299,600;  300,450
275,650;  306,050;  289,600;  281,450
275,739;  280,750;  268,600;  287,450
275,828;  262,050;  262,600;  259,450
275,917;  308,750;  318,600;  305,450
276,006;  293,150;  255,600;  304,450
276,095;  285,150;  276,600;  294,450
276,184;  303,850;  317,600;  317,450
276,273;  289,650;  270,600;  297,450
276,362;  268,350;  260,600;  256,450
276,451;  289,750;  271,600;  286,450
276,540;  288,950;  259,600;  271,450
276,629;  290,050;  274,600;  290,450
276,718;  259,150;  268,600;  258,450
276,807;  272,050;  275,600;  256,450
276,896;  283,250;  269,600;  277,450
276,985;  278,450;  287,600;  255,450
277,074;  296,550;  270,600;  267,450
277,163;  299,750;  289,600;  281,450
277,252;  277,050;  269,600;  278,450
277,341;  278,950;  272,600;  248,450
277,430;  280,350;  239,600;  255,450
277,519;  293,650;  304,600;  293,450
277,608;  264,550;  254,600;  244,450
277,696;  262,650;  272,600;  279,450
277,785;  273,850;  255,600;  276,450
277,874;  299,550;  285,600;  259,450
277,963;  280,650;  273,600;  248,450
278,052;  266,750;  264,600;  286,450
278,141;  292,750;  289,600;  267,450
278,229;  278,950;  279,600;  278,450
278,318;  256,850;  278,600;  269,450
278,407;  280,550;  288,600;  264,450
278,496;  287,350;  319,600;  277,450
278,585;  296,550;  288,600;  297,450
278,673;  261,650;  257,600;  251,450
278,762;  267,750;  238,600;  264,450
278,851;  284,250;  293,600;  272,450
278,940;  296,950;  293,600;  318,450
279,028;  282,350;  271,600;  284,450
279,117;  281,350;  290,600;  283,450
279,206;  281,050;  260,600;  254,450
279,294;  277,050;  280,600;  268,450
279,383;  282,850;  272,600;  289,450
279,472;  294,850;  311,600;  252,450
279,561;  276,050;  264,600;  275,450
279,649;  308,150;  305,600;  283,450
279,738;  253,850;  229,600;  266,450
279,827;  303,050;  285,600;  272,450
279,915;  273,050;  283,600;  248,450
280,004;  292,950;  273,600;  285,450
280,092;  295,650;  286,600;  275,450
280,181;  281,750;  284,600;  249,450
280,270;  286,550;  280,600;  236,450
280,358;  303,650;  299,600;  288,450
280,447;  259,250;  246,600;  240,450
280,535;  265,950;  284,600;  259,450
280,624;  268,350;  291,600;  256,450
280,713;  289,850;  267,600;  266,450
280,801;  295,950;  303,600;  274,450
280,890;  289,750;  262,600;  274,450
280,978;  272,450;  267,600;  239,450
281,067;  250,950;  229,600;  244,450
281,155;  266,150;  267,600;  279,450
281,244;  326,350;  301,600;  299,450
281,332;  287,550;  252,600;  297,450
281,421;  266,250;  273,600;  229,450
281,509;  282,850;  266,600;  268,450
281,598;  251,750;  255,600;  241,450
281,686;  289,650;  300,600;  277,450
281,775;  284,650;  283,600;  280,450
281,863;  278,750;  244,600;  264,450
281,951;  271,950;  254,600;  256,450
282,040;  309,250;  289,600;  320,450
282,128;  285,550;  289,600;  290,450
282,217;  266,650;  255,600;  246,450
282,305;  303,050;  291,600;  280,450
282,393;  284,350;  332,600;  266,450
282,482;  273,850;  314,600;  268,450
282,570;  273,550;  274,600;  279,450
282,658;  279,450;  295,600;  277,450
282,747;  277,050;  257,600;  278,450
282,835;  318,650;  319,600;  305,450
282,923;  263,050;  230,600;  262,450
283,012;  287,050;  268,600;  305,450
283,100;  262,450;  263,600;  230,450
283,188;  255,750;  244,600;  243,450
283,277;  274,650;  279,600;  282,450
283,365;  275,750;  252,600;  253,450
283,453;  265,550;  253,600;  228,450
283,542;  285,650;  293,600;  259,450
283,630;  272,650;  259,600;  271,450
283,718;  265,850;  271,600;  247,450
283,806;  241,850;  225,600;  226,450
283,894;  253,350;  276,600;  274,450
283,983;  283,650;  256,600;  279,450
284,071;  280,450;  307,600;  269,450
284,159;  307,350;  319,600;  305,450
284,247;  283,850;  296,600;  287,450
284,335;  286,850;  267,600;  263,450
284,424;  277,250;  287,600;  269,450
284,512;  287,150;  295,600;  248,450
284,600;  278,950;  261,600;  236,450
284,688;  314,250;  297,600;  325,450
284,776;  276,950;  259,600;  277,450
284,864;  303,650;  327,600;  300,450
284,952;  287,450;  291,600;  276,450
285,041;  297,450;  286,600;  304,450
285,129;  307,950;  304,600;  290,450
285,217;  290,050;  309,600;  280,450
285,305;  311,950;  297,600;  304,450
285,393;  281,450;  255,600;  268,450
285,481;  296,250;  292,600;  274,450
285,569;  279,150;  297,600;  281,450
285,657;  288,550;  272,600;  276,450
285,745;  287,250;  334,600;  282,450
285,833;  285,550;  277,600;  294,450
285,921;  297,850;  301,600;  299,450
286,009;  295,050;  308,600;  308,450
286,097;  289,650;  313,600;  288,450
286,185;  283,850;  294,600;  259,450
286,273;  279,850;  302,600;  257,450
286,361;  305,150;  322,600;  287,450
286,449;  288,750;  305,600;  260,450
286,537;  300,350;  300,600;  248,450
286,625;  291,450;  300,600;  275,450
286,713;  288,450;  262,600;  270,450
286,801;  308,350;  320,600;  307,450
286,889;  324,650;  304,600;  282,450
286,976;  289,350;  271,600;  266,450
287,064;  304,950;  297,600;  309,450
287,152;  299,250;  332,600;  299,450
287,240;  304,150;  297,600;  327,450
287,328;  276,550;  249,600;  245,450
287,416;  284,450;  295,600;  277,450
287,504;  298,850;  302,600;  274,450
287,591;  291,950;  317,600;  307,450
287,679;  276,050;  272,600;  275,450
287,767;  291,850;  270,600;  292,450
287,855;  298,150;  271,600;  284,450
287,943;  300,050;  312,600;  269,450
288,030;  289,550;  246,600;  293,450
288,118;  307,050;  325,600;  295,450
288,206;  278,250;  264,600;  290,450
288,294;  303,950;  273,600;  292,450
288,382;  295,150;  301,600;  288,450
288,469;  304,350;  324,600;  274,450
288,557;  281,550;  276,600;  275,450
288,645;  318,150;  321,600;  281,450
288,732;  268,850;  274,600;  276,450
288,820;  310,650;  334,600;  270,450
288,908;  303,150;  295,600;  295,450
288,995;  309,450;  295,600;  277,450
289,083;  293,050;  278,600;  278,450
289,171;  326,050;  328,600;  310,450
289,258;  375,450;  402,600;  311,450
289,346;  430,050;  433,600;  329,450
289,434;  309,750;  345,600;  318,450
289,521;  288,650;  298,600;  281,450
289,609;  317,450;  317,600;  309,450
289,697;  312,250;  310,600;  321,450
289,784;  284,450;  300,600;  284,450
289,872;  302,050;  314,600;  313,450
289,959;  281,150;  274,600;  262,450
290,047;  293,350;  268,600;  272,450
290,134;  272,050;  286,600;  264,450
290,222;  306,050;  317,600;  294,450
290,310;  308,750;  310,600;  280,450
290,397;  329,550;  302,600;  319,450
290,485;  284,450;  291,600;  284,450
290,572;  313,050;  286,600;  318,450
290,660;  303,150;  300,600;  293,450
290,747;  287,550;  292,600;  290,450
290,835;  299,250;  296,600;  321,450
290,922;  298,050;  307,600;  294,450
291,009;  304,050;  310,600;  283,450
291,097;  287,750;  305,600;  282,450
291,184;  337,250;  319,600;  313,450
291,272;  284,250;  297,600;  264,450
291,359;  275,350;  283,600;  283,450
291,447;  296,050;  294,600;  309,450
291,534;  314,650;  310,600;  315,450
291,621;  292,550;  261,600;  308,450
291,709;  274,650;  284,600;  270,450
291,796;  300,250;  313,600;  323,450
291,884;  291,350;  310,600;  308,450
291,971;  316,750;  306,600;  287,450
292,058;  283,250;  250,600;  294,450
292,146;  287,150;  293,600;  279,450
292,233;  277,050;  284,600;  243,450
292,320;  286,550;  294,600;  284,450
292,408;  314,850;  316,600;  297,450
292,495;  289,950;  302,600;  281,450
292,582;  281,450;  276,600;  273,450
292,669;  273,150;  273,600;  285,450
292,757;  287,450;  292,600;  288,450
292,844;  305,950;  305,600;  312,450
292,931;  280,750;  272,600;  266,450
293,018;  282,950;  267,600;  264,450
293,106;  303,250;  290,600;  324,450
293,193;  266,850;  265,600;  280,450
293,280;  287,450;  304,600;  310,450
293,367;  297,850;  279,600;  295,450
293,455;  284,850;  253,600;  248,450
293,542;  269,850;  264,600;  268,450
293,629;  276,250;  264,600;  272,450
293,716;  311,450;  341,600;  307,450
293,803;  285,450;  273,600;  279,450
293,890;  309,950;  284,600;  298,450
293,978;  282,850;  277,600;  266,450
294,065;  276,850;  293,600;  268,450
294,152;  300,950;  276,600;  315,450
294,239;  269,950;  294,600;  269,450
294,326;  284,750;  307,600;  277,450
294,413;  276,750;  280,600;  253,450
294,500;  289,150;  304,600;  286,450
294,587;  279,750;  291,600;  255,450
294,674;  299,350;  280,600;  314,450
294,761;  291,750;  283,600;  266,450
294,848;  288,250;  275,600;  288,450
294,935;  282,350;  281,600;  279,450
295,022;  265,950;  269,600;  243,450
295,109;  264,350;  259,600;  253,450
295,196;  285,750;  297,600;  309,450
295,283;  274,650;  295,600;  256,450
295,370;  308,650;  318,600;  307,450
295,457;  288,650;  266,600;  285,450
295,544;  271,050;  277,600;  264,450
295,631;  298,850;  282,600;  272,450
295,718;  267,050;  279,600;  248,450
295,805;  296,150;  298,600;  281,450
295,892;  300,450;  314,600;  274,450
295,979;  296,050;  294,600;  284,450
296,066;  294,250;  306,600;  278,450
296,153;  294,750;  313,600;  324,450
296,240;  291,350;  312,600;  282,450
296,327;  278,650;  286,600;  257,450
296,413;  310,650;  316,600;  272,450
296,500;  342,450;  330,600;  261,450
296,587;  543,450;  534,600;  268,450
296,674; 1724,850; 1749,600;  263,450
296,761;  773,950;  786,600;  252,450
296,848;  294,050;  299,600;  274,450
296,934;  288,450;  296,600;  274,450
297,021;  287,350;  286,600;  266,450
297,108;  280,250;  310,600;  269,450
297,195;  287,150;  276,600;  268,450
297,282;  273,350;  295,600;  273,450
297,368;  305,150;  297,600;  347,450
297,455;  276,050;  284,600;  259,450
297,542;  304,050;  330,600;  316,450
297,629;  294,850;  315,600;  290,450
297,715;  305,150;  309,600;  306,450
297,802;  298,650;  286,600;  273,450
297,889;  311,050;  307,600;  319,450
297,975;  326,750;  326,600;  320,450
298,062;  309,350;  325,600;  301,450
298,149;  263,550;  300,600;  269,450
298,235;  291,250;  286,600;  308,450
298,322;  292,750;  287,600;  291,450
298,409;  310,350;  340,600;  304,450
298,495;  270,850;  282,600;  250,450
298,582;  306,450;  303,600;  304,450
298,669;  291,350;  290,600;  290,450
298,755;  290,650;  295,600;  281,450
298,842;  297,650;  315,600;  314,450
298,928;  299,850;  298,600;  281,450
299,015;  292,850;  287,600;  296,450
299,102;  316,750;  306,600;  309,450
299,188;  315,450;  307,600;  292,450
299,275;  309,550;  313,600;  289,450
299,361;  279,750;  274,600;  256,450
299,448;  299,350;  283,600;  278,450
299,534;  305,750;  328,600;  282,450
299,621;  301,750;  323,600;  302,450
299,707;  294,250;  298,600;  298,450
299,794;  312,650;  318,600;  322,450
299,880;  317,450;  301,600;  313,450
299,967;  284,950;  285,600;  251,450
300,053;  289,550;  301,600;  301,450
300,140;  318,950;  314,600;  315,450
300,226;  305,050;  320,600;  297,450
300,312;  304,250;  310,600;  306,450
300,399;  307,450;  290,600;  309,450
300,485;  287,150;  310,600;  268,450
300,572;  270,050;  272,600;  257,450
300,658;  295,250;  299,600;  272,450
300,744;  298,850;  310,600;  301,450
300,831;  309,750;  302,600;  292,450
300,917;  319,450;  298,600;  310,450
301,004;  301,350;  299,600;  288,450
301,090;  277,450;  279,600;  254,450
301,176;  279,950;  284,600;  254,450
301,263;  304,450;  322,600;  282,450
301,349;  285,350;  294,600;  273,450
301,435;  276,850;  267,600;  268,450
301,521;  305,450;  323,600;  301,450
301,608;  312,350;  311,600;  319,450
301,694;  290,150;  304,600;  283,450
301,780;  301,350;  296,600;  288,450
301,867;  280,950;  281,600;  274,450
301,953;  309,550;  289,600;  304,450
302,039;  383,550;  409,600;  273,450
302,125;  540,950;  539,600;  281,450
302,211;  348,950;  349,600;  300,450
302,298;  341,950;  374,600;  261,450
302,384;  294,350;  296,600;  238,450
302,470;  290,850;  280,600;  280,450
302,556;  302,650;  331,600;  294,450
302,642;  299,350;  286,600;  226,450
302,729;  283,350;  300,600;  270,450
302,815;  312,050;  299,600;  269,450
302,901;  292,550;  267,600;  294,450
302,987;  294,150;  299,600;  293,450
303,073;  296,150;  284,600;  283,450
303,159;  287,350;  295,600;  305,450
303,245;  278,750;  279,600;  256,450
303,331;  280,350;  281,600;  277,450
303,417;  297,850;  283,600;  328,450
303,503;  310,050;  331,600;  293,450
303,590;  281,350;  289,600;  272,450
303,676;  296,750;  289,600;  302,450
303,762;  287,450;  288,600;  270,450
303,848;  301,650;  295,600;  316,450
303,934;  307,450;  323,600;  286,450
304,020;  298,250;  304,600;  288,450
304,106;  302,850;  318,600;  287,450
304,192;  288,850;  265,600;  275,450
304,278;  294,450;  297,600;  304,450
304,364;  315,750;  327,600;  303,450
304,450;  306,950;  283,600;  288,450
304,535;  300,650;  304,600;  295,450
304,621;  295,350;  302,600;  309,450
304,707;  298,050;  294,600;  296,450
304,793;  318,650;  323,600;  295,450
304,879;  302,250;  305,600;  292,450
304,965;  310,750;  297,600;  273,450
305,051;  308,250;  310,600;  260,450
305,137;  316,450;  266,600;  314,450
305,223;  276,650;  299,600;  301,450
305,309;  319,350;  306,600;  306,450
305,394;  298,550;  266,600;  282,450
305,480;  294,450;  298,600;  266,450
305,566;  300,550;  280,600;  297,450
305,652;  302,050;  297,600;  308,450
305,738;  343,950;  332,600;  315,450
305,824;  306,950;  280,600;  303,450
305,909;  317,650;  338,600;  301,450
305,995;  284,250;  267,600;  268,450
306,081;  337,650;  368,600;  334,450
306,167;  296,650;  287,600;  311,450
306,252;  311,350;  319,600;  311,450
306,338;  333,950;  332,600;  332,450
306,424;  303,650;  315,600;  260,450
306,510;  315,050;  355,600;  305,450
306,595;  323,550;  303,600;  335,450
306,681;  303,450;  321,600;  287,450
306,767;  312,350;  313,600;  286,450
306,852;  317,350;  337,600;  314,450
306,938;  323,250;  291,600;  336,450
307,024;  296,650;  281,600;  321,450
307,109;  328,950;  340,600;  327,450
307,195;  323,750;  318,600;  337,450
307,281;  310,150;  322,600;  315,450
307,366;  317,250;  319,600;  284,450
307,452;  307,650;  292,600;  312,450
307,537;  294,150;  289,600;  281,450
307,623;  286,350;  272,600;  282,450
307,709;  302,250;  302,600;  325,450
307,794;  284,850;  293,600;  258,450
307,880;  315,350;  321,600;  320,450
307,965;  297,950;  278,600;  274,450
308,051;  291,250;  263,600;  305,450
308,136;  294,550;  314,600;  260,450
308,222;  299,550;  306,600;  301,450
308,307;  291,250;  286,600;  312,450
308,393;  296,750;  294,600;  285,450
308,478;  312,650;  321,600;  308,450
308,564;  288,850;  280,600;  276,450
308,649;  307,150;  308,600;  304,450
308,735;  292,450;  320,600;  278,450
308,820;  305,450;  328,600;  304,450
308,906;  294,950;  298,600;  272,450
308,991;  338,250;  339,600;  314,450
309,076;  319,950;  335,600;  290,450
309,162;  275,350;  265,600;  245,450
309,247;  306,350;  297,600;  288,450
309,333;  292,950;  284,600;  286,450
309,418;  286,450;  281,600;  297,450
309,503;  290,950;  301,600;  289,450
309,589;  294,050;  308,600;  306,450
309,674;  275,950;  274,600;  268,450
309,759;  299,450;  291,600;  289,450
309,845;  299,750;  290,600;  312,450
309,930;  290,250;  292,600;  288,450
310,015;  273,850;  257,600;  251,450
310,101;  313,650;  282,600;  296,450
310,186;  280,050;  267,600;  298,450
310,271;  294,250;  298,600;  286,450
310,357;  292,550;  265,600;  286,450
310,442;  302,050;  288,600;  263,450
310,527;  289,250;  288,600;  306,450
310,612;  270,050;  291,600;  253,450
310,698;  310,850;  282,600;  275,450
310,783;  295,450;  288,600;  279,450
310,868;  286,050;  313,600;  263,450
310,953;  276,950;  269,600;  293,450
311,038;  302,850;  289,600;  286,450
311,124;  280,550;  296,600;  277,450
311,209;  278,450;  293,600;  291,450
311,294;  311,550;  306,600;  303,450
311,379;  272,450;  254,600;  258,450
311,464;  293,550;  302,600;  291,450
311,549;  279,550;  277,600;  294,450
311,634;  277,750;  284,600;  275,450
311,719;  319,150;  308,600;  309,450
311,805;  295,750;  308,600;  275,450
311,890;  287,250;  308,600;  261,450
311,975;  295,350;  262,600;  283,450
312,060;  307,850;  321,600;  289,450
312,145;  281,450;  277,600;  262,450
312,230;  310,550;  313,600;  285,450
312,315;  325,050;  325,600;  262,450
312,400;  403,850;  404,600;  303,450
312,485; 1669,150; 1668,600;  292,450
312,570; 1207,450; 1232,600;  239,450
312,655;  328,850;  342,600;  282,450
312,740;  331,050;  312,600;  289,450
312,825;  330,550;  329,600;  301,450
312,910;  342,250;  343,600;  278,450
312,995;  449,150;  443,600;  325,450
313,080; 2118,750; 2082,600;  265,450
313,165; 2152,150; 2149,600;  310,450
313,250;  353,550;  308,600;  276,450
313,335;  315,950;  321,600;  307,450
313,419;  278,450;  269,600;  242,450
313,504;  322,550;  304,600;  286,450
313,589;  296,250;  272,600;  277,450
313,674;  306,450;  303,600;  290,450
313,759;  279,150;  274,600;  273,450
313,844;  303,050;  276,600;  289,450
313,929;  285,550;  295,600;  285,450
314,014;  319,650;  307,600;  320,450
314,098;  296,450;  321,600;  305,450
314,183;  266,650;  258,600;  260,450
314,268;  283,450;  295,600;  290,450
314,353;  310,450;  287,600;  290,450
314,438;  301,050;  287,600;  294,450
314,522;  303,250;  272,600;  306,450
314,607;  298,350;  282,600;  302,450
314,692;  298,950;  291,600;  301,450
314,777;  284,450;  291,600;  279,450
314,861;  273,750;  293,600;  263,450
314,946;  306,450;  321,600;  303,450
315,031;  282,150;  284,600;  267,450
315,115;  304,450;  309,600;  318,450
315,200;  306,650;  301,600;  285,450
315,285;  281,350;  278,600;  275,450
315,369;  279,850;  282,600;  273,450
315,454;  314,350;  291,600;  305,450
315,539;  305,250;  280,600;  283,450
315,623;  310,450;  308,600;  292,450
315,708;  329,250;  326,600;  315,450
315,793;  296,950;  318,600;  308,450
315,877;  298,350;  311,600;  282,450
315,962;  286,450;  263,600;  283,450
316,046;  311,150;  327,600;  298,450
316,131;  327,650;  334,600;  313,450
316,216;  312,450;  308,600;  288,450
316,300;  294,450;  307,600;  281,450
316,385;  319,650;  301,600;  319,450
316,469;  332,750;  335,600;  331,450
316,554;  290,950;  290,600;  288,450
316,638;  289,850;  297,600;  286,450
316,723;  285,250;  285,600;  262,450
316,807;  290,350;  268,600;  273,450
316,892;  276,350;  293,600;  275,450
316,976;  313,350;  298,600;  318,450
317,061;  297,450;  282,600;  309,450
317,145;  325,450;  316,600;  315,450
317,230;  315,050;  309,600;  304,450
317,314;  267,550;  264,600;  259,450
317,398;  308,750;  280,600;  323,450
317,483;  280,650;  312,600;  266,450
317,567;  301,350;  299,600;  317,450
317,652;  281,350;  280,600;  244,450
317,736;  305,350;  277,600;  329,450
317,820;  329,450;  343,600;  287,450
317,905;  302,450;  311,600;  289,450
317,989;  296,350;  303,600;  312,450
318,073;  293,850;  281,600;  280,450
318,158;  273,750;  262,600;  284,450
318,242;  289,250;  297,600;  269,450
318,326;  282,550;  265,600;  260,450
318,411;  291,950;  263,600;  290,450
318,495;  281,450;  274,600;  286,450
318,579;  287,750;  264,600;  266,450
318,664;  270,650;  284,600;  242,450
318,748;  300,150;  290,600;  266,450
318,832;  286,750;  261,600;  263,450
318,916;  264,750;  272,600;  263,450
319,001;  289,750;  287,600;  299,450
319,085;  286,950;  265,600;  265,450
319,169;  287,550;  304,600;  285,450
319,253;  275,150;  270,600;  271,450
319,337;  304,050;  311,600;  265,450
319,422;  304,850;  329,600;  325,450
319,506;  281,250;  282,600;  264,450
319,590;  295,750;  303,600;  320,450
319,674;  280,350;  326,600;  301,450
319,758;  294,150;  277,600;  278,450
319,842;  308,650;  280,600;  290,450
319,926;  289,850;  268,600;  280,450
320,010;  262,550;  267,600;  226,450
320,095;  280,950;  284,600;  274,450
320,179;  280,950;  270,600;  263,450
320,263;  285,450;  259,600;  265,450
320,347;  269,450;  217,600;  260,450
320,431;  265,250;  267,600;  245,450
320,515;  295,750;  297,600;  267,450
320,599;  261,350;  274,600;  263,450
320,683;  291,050;  295,600;  306,450
320,767;  246,350;  246,600;  230,450
320,851;  279,450;  247,600;  282,450
320,935;  311,450;  294,600;  317,450
321,019;  290,050;  258,600;  297,450
321,103;  273,450;  319,600;  295,450
321,187;  268,950;  272,600;  303,450
321,271;  287,350;  299,600;  251,450
321,355;  273,550;  290,600;  264,450
321,439;  290,750;  282,600;  306,450
321,523;  267,950;  285,600;  287,450
321,606;  288,150;  289,600;  301,450
321,690;  280,150;  285,600;  261,450
321,774;  288,350;  284,600;  286,450
321,858;  277,450;  300,600;  283,450
321,942;  290,150;  298,600;  291,450
322,026;  273,750;  296,600;  280,450
322,110;  292,350;  286,600;  264,450
322,194;  291,150;  279,600;  293,450
322,277;  277,150;  287,600;  257,450
322,361;  267,750;  260,600;  265,450
322,445;  283,150;  285,600;  252,450
322,529;  286,250;  298,600;  264,450
322,613;  296,850;  273,600;  262,450
322,696;  259,550;  287,600;  266,450
322,780;  274,850;  303,600;  256,450
322,864;  282,150;  310,600;  288,450
322,948;  285,850;  262,600;  270,450
323,031;  275,350;  268,600;  269,450
323,115;  283,150;  299,600;  257,450
323,199;  288,150;  291,600;  268,450
323,282;  296,650;  284,600;  302,450
323,366;  292,850;  280,600;  307,450
323,450;  264,650;  241,600;  266,450
323,533;  318,250;  309,600;  308,450
323,617;  264,650;  243,600;  238,450
323,701;  281,350;  239,600;  257,450
323,784;  283,050;  305,600;  289,450
323,868;  294,250;  302,600;  285,450
323,952;  287,550;  276,600;  272,450
324,035;  297,650;  295,600;  297,450
324,119;  286,650;  285,600;  262,450
324,202;  292,050;  280,600;  298,450
324,286;  277,050;  236,600;  286,450
324,370;  281,150;  291,600;  274,450
324,453;  295,350;  287,600;  296,450
324,537;  279,450;  280,600;  281,450
324,620;  281,450;  295,600;  303,450
324,704;  266,150;  281,600;  261,450
324,787;  286,750;  295,600;  267,450
324,871;  303,750;  293,600;  314,450
324,954;  297,250;  299,600;  318,450
325,038;  294,750;  299,600;  301,450
325,121;  302,350;  302,600;  316,450
325,205;  289,350;  273,600;  277,450
325,288;  276,350;  280,600;  269,450
325,371;  296,450;  275,600;  285,450
325,455;  313,450;  289,600;  302,450
325,538;  274,950;  292,600;  308,450
325,622;  318,250;  302,600;  306,450
325,705;  283,650;  303,600;  300,450
325,788;  313,850;  297,600;  298,450
325,872;  291,850;  264,600;  279,450
325,955;  325,050;  305,600;  300,450
326,039;  306,550;  290,600;  313,450
326,122;  293,050;  277,600;  288,450
326,205;  311,150;  320,600;  299,450
326,289;  309,150;  313,600;  313,450
326,372;  299,050;  310,600;  288,450
326,455;  320,750;  322,600;  318,450
326,538;  311,850;  312,600;  306,450
326,622;  302,350;  285,600;  313,450
326,705;  286,950;  272,600;  290,450
326,788;  308,550;  288,600;  324,450
326,871;  307,450;  286,600;  281,450
326,955;  307,850;  293,600;  333,450
327,038;  302,150;  304,600;  284,450
327,121;  302,650;  313,600;  303,450
327,204;  305,350;  315,600;  298,450
327,288;  316,950;  326,600;  328,450
327,371;  286,050;  286,600;  294,450
327,454;  310,850;  303,600;  316,450
327,537;  292,650;  272,600;  285,450
327,620;  328,550;  327,600;  309,450
327,703;  312,050;  308,600;  314,450
327,786;  307,250;  320,600;  319,450
327,870;  321,550;  321,600;  308,450
327,953;  295,850;  307,600;  296,450
328,036;  292,750;  291,600;  264,450
328,119;  315,050;  345,600;  299,450
328,202;  306,250;  305,600;  287,450
328,285;  327,250;  336,600;  306,450
328,368;  308,550;  335,600;  328,450
328,451;  312,550;  325,600;  334,450
328,534;  298,650;  292,600;  283,450
328,617;  302,750;  290,600;  281,450
328,700;  326,150;  325,600;  327,450
328,783;  315,350;  319,600;  292,450
328,866;  318,050;  294,600;  287,450
328,949;  321,450;  341,600;  325,450
329,032;  290,750;  292,600;  308,450
329,115;  284,450;  288,600;  279,450
329,198;  276,850;  265,600;  282,450
329,281;  299,750;  310,600;  277,450
329,364;  304,750;  300,600;  330,450
329,447;  299,750;  303,600;  300,450
329,530;  320,250;  321,600;  317,450
329,613;  297,050;  302,600;  289,450
329,696;  314,450;  308,600;  298,450
329,778;  306,250;  313,600;  293,450
329,861;  292,750;  309,600;  288,450
329,944;  324,750;  326,600;  272,450
330,027;  301,650;  312,600;  296,450
330,110;  306,150;  305,600;  313,450
330,193;  293,950;  284,600;  300,450
330,275;  312,150;  290,600;  298,450
330,358;  293,050;  278,600;  298,450
330,441;  319,850;  307,600;  326,450
330,524;  305,450;  322,600;  298,450
330,607;  302,350;  281,600;  304,450
330,689;  296,950;  278,600;  321,450
330,772;  304,350;  290,600;  305,450
330,855;  327,850;  329,600;  287,450
330,938;  311,650;  332,600;  319,450
331,020;  318,450;  298,600;  292,450
331,103;  295,250;  280,600;  310,450
331,186;  306,150;  298,600;  286,450
331,268;  289,350;  280,600;  269,450
331,351;  314,350;  285,600;  311,450
331,434;  314,550;  296,600;  316,450
331,516;  306,150;  313,600;  329,450
331,599;  290,250;  266,600;  255,450
331,682;  296,950;  301,600;  302,450
331,764;  291,550;  308,600;  261,450
331,847;  310,850;  311,600;  310,450
331,929;  281,250;  286,600;  278,450
332,012;  316,850;  296,600;  295,450
332,095;  324,350;  348,600;  317,450
332,177;  311,550;  353,600;  324,450
332,260;  324,550;  349,600;  345,450
332,342;  302,750;  310,600;  291,450
332,425;  305,350;  301,600;  293,450
332,507;  302,950;  239,600;  316,450
332,590;  286,550;  274,600;  280,450
332,672;  286,750;  310,600;  264,450
332,755;  301,350;  320,600;  233,450
332,837;  289,550;  286,600;  274,450
332,920;  309,450;  315,600;  298,450
333,002;  319,350;  308,600;  306,450
333,085;  296,150;  308,600;  298,450
333,167;  289,350;  275,600;  266,450
333,249;  294,850;  276,600;  277,450
333,332;  288,650;  275,600;  279,450
333,414;  295,950;  317,600;  295,450
333,497;  302,650;  315,600;  305,450
333,579;  299,850;  303,600;  307,450
333,661;  302,450;  319,600;  286,450
333,744;  283,950;  265,600;  243,450
333,826;  297,750;  302,600;  293,450
333,908;  314,950;  329,600;  332,450
333,991;  299,750;  253,600;  285,450
334,073;  469,750;  503,600;  321,450
334,155;  348,450;  360,600;  289,450
334,238;  305,650;  314,600;  286,450
334,320;  303,250;  296,600;  270,450
334,402;  301,850;  298,600;  292,450
334,485;  302,850;  305,600;  282,450
334,567;  300,850;  301,600;  262,450
334,649;  280,450;  266,600;  273,450
334,731;  299,950;  287,600;  285,450
334,813;  327,050;  346,600;  352,450
334,896;  284,850;  296,600;  287,450
334,978;  297,550;  302,600;  283,450
335,060;  304,950;  306,600;  296,450
335,142;  293,950;  265,600;  306,450
335,224;  301,050;  308,600;  310,450
335,307;  290,650;  277,600;  275,450
335,389;  311,450;  302,600;  315,450
335,471;  299,750;  300,600;  282,450
335,553;  312,350;  308,600;  317,450
335,635;  305,950;  303,600;  277,450
335,717;  294,150;  280,600;  305,450
335,799;  312,850;  314,600;  325,450
335,881;  276,850;  271,600;  251,450
335,963;  278,350;  283,600;  278,450
336,045;  286,550;  281,600;  276,450
336,128;  275,350;  281,600;  268,450
336,210;  285,850;  284,600;  250,450
336,292;  287,850;  301,600;  283,450
336,374;  295,050;  307,600;  287,450
336,456;  281,650;  290,600;  258,450
336,538;  294,550;  288,600;  304,450
336,620;  306,050;  325,600;  305,450
336,702;  282,650;  308,600;  309,450
336,783;  301,250;  299,600;  289,450
336,865;  295,150;  302,600;  303,450
336,947;  302,550;  299,600;  302,450
337,029;  282,750;  252,600;  262,450
337,111;  316,950;  309,600;  328,450
337,193;  278,550;  257,600;  250,450
337,275;  306,950;  302,600;  291,450
337,357;  311,950;  299,600;  305,450
337,439;  289,350;  299,600;  277,450
337,521;  276,650;  274,600;  268,450
337,602;  291,550;  280,600;  295,450
337,684;  306,750;  302,600;  341,450
337,766;  303,850;  301,600;  288,450
337,848;  288,150;  309,600;  318,450
337,930;  296,750;  300,600;  300,450
338,012;  290,750;  257,600;  295,450
338,093;  307,150;  302,600;  312,450
338,175;  312,750;  308,600;  308,450
338,257;  294,850;  296,600;  243,450
338,339;  290,750;  303,600;  248,450
338,420;  304,650;  304,600;  329,450
338,502;  297,850;  292,600;  292,450
338,584;  271,750;  261,600;  270,450
338,666;  296,750;  293,600;  301,450
338,747;  328,750;  337,600;  324,450
338,829;  302,950;  301,600;  300,450
338,911;  291,050;  281,600;  284,450
338,992;  283,650;  292,600;  299,450
339,074;  296,250;  300,600;  274,450
339,156;  292,850;  308,600;  302,450
339,237;  320,850;  344,600;  320,450
339,319;  288,550;  298,600;  284,450
339,400;  305,050;  301,600;  313,450
339,482;  272,650;  291,600;  259,450
339,564;  306,250;  337,600;  315,450
339,645;  300,450;  283,600;  306,450
339,727;  286,050;  284,600;  278,450
339,808;  318,350;  306,600;  320,450
339,890;  292,850;  285,600;  277,450
339,971;  297,650;  318,600;  299,450
340,053;  332,150;  327,600;  339,450
340,134;  280,450;  287,600;  283,450
340,216;  307,150;  294,600;  302,450
340,297;  291,250;  330,600;  312,450
340,379;  309,650;  344,600;  301,450
340,460;  299,350;  275,600;  299,450
340,542;  290,950;  307,600;  263,450
340,623;  306,450;  306,600;  325,450
340,705;  284,350;  306,600;  262,450
340,786;  291,350;  299,600;  288,450
340,868;  298,950;  299,600;  313,450
340,949;  271,450;  279,600;  269,450
341,030;  320,050;  330,600;  312,450
341,112;  274,750;  256,600;  269,450
341,193;  268,650;  287,600;  248,450
341,274;  313,850;  325,600;  312,450
341,356;  316,750;  329,600;  300,450
341,437;  301,450;  292,600;  284,450
341,518;  306,250;  313,600;  322,450
341,600;  316,550;  321,600;  324,450
341,681;  315,450;  316,600;  308,450
341,762;  315,850;  316,600;  314,450
341,844;  280,450;  271,600;  280,450
341,925;  305,250;  304,600;  329,450
342,006;  317,950;  314,600;  322,450
342,087;  290,950;  291,600;  308,450
342,169;  303,850;  301,600;  297,450
342,250;  273,050;  303,600;  250,450
342,331;  290,350;  291,600;  268,450
342,412;  299,450;  304,600;  283,450
342,493;  276,050;  279,600;  266,450
342,575;  317,050;  298,600;  308,450
342,656;  310,950;  343,600;  319,450
342,737;  321,350;  331,600;  316,450
342,818;  299,550;  319,600;  291,450
342,899;  310,050;  309,600;  295,450
342,980;  297,050;  306,600;  302,450
343,061;  289,450;  297,600;  279,450
343,143;  314,450;  299,600;  310,450
343,224;  297,850;  297,600;  287,450
343,305;  294,450;  294,600;  273,450
343,386;  291,250;  290,600;  295,450
343,467;  292,650;  306,600;  295,450
343,548;  295,650;  307,600;  271,450
343,629;  318,950;  348,600;  311,450
343,710;  317,250;  354,600;  330,450
343,791;  323,550;  296,600;  295,450
343,872;  297,750;  314,600;  271,450
343,953;  312,050;  323,600;  303,450
344,034;  309,150;  307,600;  307,450
344,115;  303,850;  298,600;  295,450
344,196;  292,450;  295,600;  273,450
344,277;  282,250;  282,600;  299,450
344,358;  300,750;  279,600;  295,450
344,439;  288,750;  281,600;  287,450
344,520;  297,550;  310,600;  269,450
344,601;  305,550;  319,600;  332,450
344,681;  296,150;  312,600;  315,450
344,762;  278,350;  275,600;  257,450
344,843;  273,350;  300,600;  255,450
344,924;  300,050;  252,600;  290,450
345,005;  276,850;  269,600;  286,450
345,086;  305,250;  301,600;  289,450
345,167;  288,650;  299,600;  282,450
345,247;  323,650;  305,600;  327,450
345,328;  312,050;  287,600;  317,450
345,409;  297,350;  280,600;  307,450
345,490;  301,650;  314,600;  310,450
345,571;  305,550;  293,600;  295,450
345,651;  282,050;  260,600;  335,450
345,732;  299,450;  303,600;  286,450
345,813;  299,650;  285,600;  291,450
345,894;  286,150;  254,600;  279,450
345,974;  304,250;  346,600;  305,450
346,055;  290,150;  275,600;  291,450
346,136;  299,150;  311,600;  287,450
346,216;  319,750;  312,600;  345,450
346,297;  302,150;  294,600;  289,450
346,378;  289,650;  270,600;  300,450
346,458;  295,850;  299,600;  271,450
346,539;  290,850;  295,600;  315,450
346,620;  311,250;  301,600;  312,450
346,700;  288,150;  302,600;  258,450
346,781;  278,550;  252,600;  260,450
346,861;  304,950;  283,600;  301,450
346,942;  298,850;  273,600;  319,450
347,023;  315,650;  302,600;  306,450
347,103;  287,450;  296,600;  287,450
347,184;  285,550;  321,600;  294,450
347,264;  286,650;  289,600;  310,450
347,345;  286,750;  280,600;  281,450
347,425;  278,550;  270,600;  295,450
347,506;  275,850;  283,600;  283,450
347,586;  292,950;  258,600;  283,450
347,667;  302,550;  316,600;  299,450
347,747;  310,250;  307,600;  304,450
347,828;  290,350;  308,600;  271,450
347,908;  301,850;  307,600;  307,450
347,988;  296,550;  296,600;  251,450
348,069;  314,450;  295,600;  305,450
348,149;  311,350;  303,600;  276,450
348,230;  306,950;  297,600;  301,450
348,310;  274,550;  291,600;  301,450
348,390;  286,050;  285,600;  267,450
348,471;  303,550;  299,600;  270,450
348,551;  284,550;  289,600;  264,450
348,632;  282,350;  288,600;  278,450
348,712;  278,550;  281,600;  278,450
348,792;  318,350;  352,600;  333,450
348,873;  283,750;  293,600;  249,450
348,953;  279,950;  278,600;  330,450
349,033;  293,850;  285,600;  311,450
349,113;  274,350;  278,600;  277,450
349,194;  296,050;  289,600;  310,450
349,274;  296,850;  300,600;  310,450
349,354;  300,850;  288,600;  285,450
349,434;  295,250;  300,600;  299,450
349,515;  311,250;  310,600;  320,450
349,595;  303,650;  308,600;  287,450
349,675;  302,750;  289,600;  299,450
349,755;  290,150;  325,600;  280,450
349,835;  303,350;  305,600;  309,450
349,916;  293,750;  298,600;  284,450
349,996;  283,250;  287,600;  253,450
350,076;  312,150;  286,600;  315,450
350,156;  282,150;  272,600;  280,450
350,236;  305,450;  292,600;  316,450
350,316;  295,450;  296,600;  282,450
350,396;  297,950;  283,600;  306,450
350,476;  292,050;  308,600;  275,450
350,556;  292,650;  275,600;  290,450
350,637;  325,850;  331,600;  312,450
350,717;  281,250;  269,600;  287,450
350,797;  301,350;  307,600;  305,450
350,877;  293,650;  305,600;  323,450
350,957;  291,350;  285,600;  291,450
351,037;  299,450;  303,600;  298,450
351,117;  301,750;  304,600;  275,450
351,197;  306,650;  331,600;  302,450
351,277;  293,850;  328,600;  277,450
351,357;  308,650;  322,600;  293,450
351,437;  294,150;  299,600;  283,450
351,516;  310,150;  337,600;  283,450
351,596;  297,350;  291,600;  329,450
351,676;  284,250;  269,600;  284,450
351,756;  321,550;  308,600;  326,450
351,836;  311,050;  285,600;  329,450
351,916;  297,450;  324,600;  287,450
351,996;  306,250;  313,600;  318,450
352,076;  287,750;  288,600;  302,450
352,156;  309,650;  317,600;  297,450
352,235;  292,450;  310,600;  304,450
352,315;  307,250;  313,600;  339,450
352,395;  301,150;  306,600;  277,450
352,475;  309,450;  339,600;  287,450
352,555;  324,550;  362,600;  344,450
352,634;  308,250;  304,600;  344,450
352,714;  292,950;  310,600;  263,450
352,794;  351,150;  334,600;  364,450
352,874;  315,550;  335,600;  339,450
352,953;  332,150;  336,600;  318,450
353,033;  318,850;  317,600;  344,450
353,113;  333,350;  360,600;  341,450
353,193;  317,350;  314,600;  334,450
353,272;  331,750;  295,600;  329,450
353,352;  305,550;  303,600;  275,450
353,432;  344,550;  324,600;  344,450
353,511;  326,050;  323,600;  302,450
353,591;  356,150;  352,600;  347,450
353,671;  324,650;  335,600;  320,450
353,750;  327,950;  311,600;  311,450
353,830;  307,350;  319,600;  296,450
353,909;  338,650;  335,600;  341,450
353,989;  316,450;  309,600;  297,450
354,069;  314,150;  315,600;  318,450
354,148;  333,750;  341,600;  323,450
354,228;  307,650;  315,600;  300,450
354,307;  310,550;  313,600;  312,450
354,387;  324,950;  316,600;  326,450
354,466;  308,750;  319,600;  299,450
354,546;  331,450;  314,600;  347,450
354,625;  317,750;  341,600;  324,450
354,705;  325,650;  272,600;  330,450
354,784;  312,150;  301,600;  303,450
354,864;  309,450;  309,600;  305,450
354,943;  334,850;  340,600;  339,450
355,023;  302,150;  288,600;  314,450
355,102;  362,650;  337,600;  333,450
355,181;  307,850;  328,600;  329,450
355,261;  331,350;  314,600;  344,450
355,340;  296,050;  301,600;  307,450
355,420;  336,950;  325,600;  327,450
355,499;  316,150;  294,600;  326,450
355,578;  317,450;  321,600;  324,450
355,658;  327,250;  310,600;  346,450
355,737;  313,750;  312,600;  309,450
355,816;  317,050;  330,600;  333,450
355,896;  305,950;  300,600;  301,450
355,975;  307,250;  308,600;  294,450
356,054;  308,850;  316,600;  285,450
356,133;  293,450;  287,600;  314,450
356,213;  318,150;  318,600;  292,450
356,292;  304,750;  297,600;  276,450
356,371;  305,050;  331,600;  297,450
356,451;  328,350;  345,600;  294,450
356,530;  345,550;  357,600;  319,450
356,609;  308,950;  306,600;  286,450
356,688;  311,450;  314,600;  298,450
356,767;  306,850;  299,600;  290,450
356,846;  332,250;  346,600;  295,450
356,926;  337,250;  342,600;  361,450
357,005;  314,050;  332,600;  321,450
357,084;  305,050;  318,600;  321,450
357,163;  312,350;  335,600;  341,450
357,242;  311,650;  286,600;  337,450
357,321;  312,650;  322,600;  296,450
357,400;  318,550;  305,600;  310,450
357,479;  311,050;  336,600;  292,450
357,559;  314,650;  325,600;  314,450
357,638;  304,150;  312,600;  292,450
357,717;  303,950;  322,600;  304,450
357,796;  323,450;  348,600;  323,450
357,875;  309,150;  333,600;  316,450
357,954;  310,950;  312,600;  285,450
358,033;  321,550;  311,600;  278,450
358,112;  323,250;  302,600;  300,450
358,191;  313,050;  313,600;  289,450
358,270;  284,850;  266,600;  300,450
358,349;  317,350;  291,600;  324,450
358,428;  320,750;  321,600;  335,450
358,507;  322,750;  348,600;  306,450
358,585;  315,350;  318,600;  326,450
358,664;  321,450;  318,600;  340,450
358,743;  313,250;  293,600;  304,450
358,822;  332,250;  354,600;  329,450
358,901;  299,350;  275,600;  303,450
358,980;  304,850;  308,600;  299,450
359,059;  329,250;  326,600;  326,450
359,138;  318,850;  308,600;  324,450
359,216;  322,050;  320,600;  314,450
359,295;  302,250;  325,600;  329,450
359,374;  322,250;  335,600;  301,450
359,453;  313,950;  340,600;  315,450
359,532;  302,050;  307,600;  310,450
359,610;  314,250;  315,600;  307,450
359,689;  322,250;  324,600;  330,450
359,768;  311,550;  305,600;  294,450
359,847;  303,550;  313,600;  287,450
359,925;  305,150;  303,600;  315,450
360,004;  296,950;  295,600;  289,450
360,083;  307,750;  299,600;  319,450
360,161;  306,950;  314,600;  285,450
360,240;  287,150;  272,600;  289,450
360,319;  305,650;  323,600;  309,450
360,397;  320,750;  313,600;  320,450
360,476;  312,350;  291,600;  325,450
360,555;  341,550;  334,600;  340,450
360,633;  304,950;  287,600;  300,450
360,712;  308,050;  299,600;  264,450
360,790;  326,250;  314,600;  320,450
360,869;  307,150;  297,600;  296,450
360,948;  312,050;  278,600;  334,450
361,026;  301,650;  321,600;  276,450
361,105;  310,450;  305,600;  290,450
361,183;  326,150;  294,600;  286,450
361,262;  302,050;  300,600;  280,450
361,340;  304,850;  318,600;  297,450
361,419;  277,350;  282,600;  250,450
361,497;  339,750;  300,600;  335,450
361,576;  317,350;  292,600;  315,450
361,654;  339,750;  361,600;  322,450
361,733;  287,650;  320,600;  300,450
361,811;  322,650;  320,600;  311,450
361,890;  285,450;  267,600;  289,450
361,968;  318,050;  269,600;  303,450
362,046;  329,350;  334,600;  321,450
362,125;  318,650;  353,600;  326,450
362,203;  309,850;  297,600;  287,450
362,282;  331,150;  319,600;  338,450
362,360;  322,450;  296,600;  307,450
362,438;  306,750;  310,600;  302,450
362,517;  348,550;  346,600;  347,450
362,595;  327,450;  312,600;  351,450
362,673;  338,650;  323,600;  317,450
362,752;  315,450;  349,600;  327,450
362,830;  328,350;  338,600;  349,450
362,908;  319,350;  310,600;  307,450
362,986;  329,650;  335,600;  315,450
363,065;  322,450;  313,600;  344,450
363,143;  348,050;  354,600;  367,450
363,221;  310,750;  302,600;  288,450
363,299;  318,750;  304,600;  309,450
363,378;  322,250;  297,600;  335,450
363,456;  297,750;  286,600;  316,450
363,534;  317,950;  318,600;  323,450
363,612;  325,750;  320,600;  312,450
363,690;  334,450;  319,600;  344,450
363,769;  351,750;  340,600;  345,450
363,847;  336,650;  308,600;  356,450
363,925;  298,250;  282,600;  303,450
364,003;  355,050;  343,600;  348,450
364,081;  338,050;  323,600;  338,450
364,159;  338,950;  325,600;  330,450
364,237;  348,250;  351,600;  326,450
364,315;  324,850;  306,600;  311,450
364,393;  360,150;  363,600;  340,450
364,471;  344,350;  345,600;  315,450
364,549;  340,150;  344,600;  337,450
364,627;  348,950;  339,600;  321,450
364,705;  356,850;  344,600;  299,450
364,783;  430,550;  417,600;  294,450
364,861; 1005,350; 1050,600;  311,450
364,939; 3598,150; 3619,600;  304,450
365,017;  783,750;  723,600;  298,450
365,095;  367,250;  341,600;  327,450
365,173;  369,050;  398,600;  335,450
365,251;  376,250;  356,600;  345,450
365,329;  527,550;  527,600;  344,450
365,407; 1188,950; 1155,600;  315,450
365,485;  466,650;  464,600;  377,450
365,563;  349,950;  354,600;  339,450
365,641;  338,450;  327,600;  316,450
365,719;  335,950;  361,600;  314,450
365,796;  344,650;  329,600;  309,450
365,874;  356,750;  329,600;  354,450
365,952;  317,650;  334,600;  297,450
366,030;  340,050;  311,600;  318,450
366,108;  363,650;  336,600;  325,450
366,185;  621,350;  644,600;  330,450
366,263;  876,550;  880,600;  333,450
366,341;  378,850;  362,600;  310,450
366,419;  327,550;  335,600;  319,450
366,496;  350,250;  347,600;  336,450
366,574;  324,250;  299,600;  321,450
366,652;  341,550;  381,600;  324,450
366,730;  367,850;  336,600;  375,450
366,807;  322,750;  317,600;  335,450
366,885;  327,150;  315,600;  340,450
366,963;  330,550;  305,600;  332,450
367,040;  346,150;  348,600;  348,450
367,118;  323,150;  315,600;  299,450
367,196;  350,050;  322,600;  355,450
367,273;  339,650;  331,600;  352,450
367,351;  330,950;  314,600;  320,450
367,428;  357,950;  351,600;  360,450
367,506;  337,750;  361,600;  305,450
367,584;  361,350;  352,600;  377,450
367,661;  347,950;  329,600;  332,450
367,739;  328,450;  328,600;  328,450
367,816;  323,750;  343,600;  292,450
367,894;  343,350;  368,600;  312,450
367,971;  322,150;  309,600;  328,450
368,049;  359,250;  376,600;  316,450
368,126;  322,450;  329,600;  318,450
368,204;  344,550;  333,600;  342,450
368,281;  355,250;  375,600;  360,450
368,359;  352,050;  352,600;  332,450
368,436;  338,050;  349,600;  336,450
368,514;  345,150;  344,600;  337,450
368,591;  329,050;  344,600;  347,450
368,668;  350,350;  375,600;  336,450
368,746;  354,650;  387,600;  352,450
368,823;  336,250;  338,600;  380,450
368,901;  335,350;  325,600;  328,450
368,978;  348,550;  329,600;  311,450
369,055;  344,450;  339,600;  332,450
369,133;  357,350;  371,600;  352,450
369,210;  339,950;  328,600;  366,450
369,287;  374,250;  364,600;  366,450
369,365;  373,250;  380,600;  367,450
369,442;  347,750;  347,600;  350,450
369,519;  302,650;  321,600;  298,450
369,596;  369,650;  359,600;  339,450
369,674;  341,750;  327,600;  283,450
369,751;  358,750;  337,600;  371,450
369,828;  342,750;  351,600;  337,450
369,905;  347,850;  358,600;  377,450
369,983;  329,050;  305,600;  327,450
370,060;  328,250;  323,600;  301,450
370,137;  374,550;  394,600;  401,450
370,214;  336,150;  321,600;  374,450
370,291;  347,850;  350,600;  340,450
370,368;  344,550;  356,600;  383,450
370,446;  340,150;  301,600;  350,450
370,523;  323,050;  360,600;  316,450
370,600;  345,250;  368,600;  319,450
370,677;  342,350;  348,600;  332,450
370,754;  337,850;  343,600;  331,450
370,831;  336,250;  352,600;  343,450
370,908;  363,250;  347,600;  374,450
370,985;  325,850;  333,600;  281,450
371,062;  351,350;  341,600;  344,450
371,139;  358,450;  361,600;  363,450
371,216;  356,650;  351,600;  347,450
371,293;  345,050;  329,600;  359,450
371,370;  322,850;  322,600;  314,450
371,447;  348,150;  346,600;  342,450
371,524;  372,150;  346,600;  357,450
371,601;  368,350;  371,600;  341,450
371,678;  359,950;  350,600;  355,450
371,755;  340,950;  366,600;  335,450
371,832;  365,350;  370,600;  375,450
371,909;  345,350;  370,600;  318,450
371,986;  373,450;  371,600;  394,450
372,063;  337,250;  324,600;  329,450
372,140;  345,250;  342,600;  359,450
372,216;  358,250;  356,600;  331,450
372,293;  339,550;  310,600;  347,450
372,370;  369,850;  375,600;  357,450
372,447;  340,450;  329,600;  372,450
372,524;  348,450;  350,600;  371,450
372,601;  343,350;  369,600;  321,450
372,677;  341,450;  344,600;  333,450
372,754;  341,350;  355,600;  360,450
372,831;  348,650;  356,600;  354,450
372,908;  362,050;  380,600;  385,450
372,984;  350,150;  362,600;  356,450
373,061;  334,250;  317,600;  334,450
373,138;  343,550;  367,600;  366,450
373,215;  350,750;  329,600;  317,450
373,291;  340,350;  347,600;  356,450
373,368;  351,850;  378,600;  362,450
373,445;  352,450;  374,600;  345,450
373,521;  352,650;  355,600;  341,450
373,598;  329,250;  354,600;  314,450
373,675;  333,550;  335,600;  358,450
373,751;  336,750;  336,600;  357,450
373,828;  339,550;  338,600;  346,450
373,904;  381,650;  409,600;  394,450
373,981;  325,550;  340,600;  337,450
374,057;  355,650;  343,600;  341,450
374,134;  328,650;  339,600;  316,450
374,211;  334,750;  330,600;  339,450
374,287;  336,150;  336,600;  339,450
374,364;  356,050;  379,600;  370,450
374,440;  318,950;  279,600;  284,450
374,517;  357,550;  367,600;  360,450
374,593;  320,050;  326,600;  299,450
374,670;  337,250;  335,600;  311,450
374,746;  346,050;  347,600;  339,450
374,823;  367,550;  389,600;  364,450
374,899;  354,650;  353,600;  394,450
374,975;  330,350;  336,600;  333,450
375,052;  314,350;  327,600;  327,450
375,128;  318,750;  281,600;  339,450
375,205;  348,150;  346,600;  378,450
375,281;  333,050;  294,600;  331,450
375,357;  365,950;  371,600;  352,450
375,434;  333,750;  313,600;  355,450
375,510;  348,350;  354,600;  323,450
375,586;  352,550;  356,600;  351,450
375,663;  311,050;  314,600;  307,450
375,739;  344,550;  355,600;  380,450
375,815;  340,450;  340,600;  317,450
375,892;  340,250;  340,600;  341,450
375,968;  332,150;  313,600;  325,450
376,044;  327,050;  370,600;  333,450
376,120;  336,850;  311,600;  364,450
376,197;  343,650;  361,600;  328,450
376,273;  345,850;  347,600;  334,450
376,349;  363,350;  386,600;  368,450
376,425;  365,550;  378,600;  336,450
376,501;  337,350;  329,600;  348,450
376,578;  352,450;  332,600;  426,450
376,654;  376,150;  393,600;  365,450
376,730;  362,250;  340,600;  352,450
376,806;  374,950;  346,600;  382,450
376,882;  370,050;  376,600;  332,450
376,958;  363,950;  367,600;  347,450
377,034;  313,050;  320,600;  296,450
377,111;  363,050;  393,600;  358,450
377,187;  391,350;  410,600;  383,450
377,263;  382,450;  397,600;  372,450
377,339;  343,750;  341,600;  319,450
377,415;  365,650;  339,600;  356,450
377,491;  346,750;  362,600;  325,450
377,567;  349,850;  340,600;  369,450
377,643;  379,050;  376,600;  362,450
377,719;  360,250;  368,600;  351,450
377,795;  350,450;  313,600;  350,450
377,871;  368,150;  366,600;  386,450
377,947;  351,850;  343,600;  352,450
378,023;  350,750;  355,600;  339,450
378,099;  349,950;  325,600;  367,450
378,174;  378,350;  364,600;  365,450
378,250;  360,150;  372,600;  389,450
378,326;  364,850;  369,600;  382,450
378,402;  356,150;  359,600;  343,450
378,478;  356,350;  340,600;  355,450
378,554;  377,550;  347,600;  374,450
378,630;  366,350;  369,600;  336,450
378,706;  356,550;  364,600;  321,450
378,781;  394,450;  387,600;  385,450
378,857;  369,050;  359,600;  347,450
378,933;  364,850;  359,600;  335,450
379,009;  337,950;  346,600;  342,450
379,085;  387,750;  419,600;  384,450
379,160;  379,150;  381,600;  366,450
379,236;  379,750;  359,600;  361,450
379,312;  360,050;  337,600;  365,450
379,387;  344,350;  372,600;  349,450
379,463;  354,650;  355,600;  344,450
379,539;  369,750;  408,600;  387,450
379,615;  358,050;  337,600;  364,450
379,690;  394,550;  420,600;  410,450
379,766;  370,050;  389,600;  370,450
379,842;  385,750;  385,600;  366,450
379,917;  389,850;  389,600;  369,450
379,993;  369,150;  370,600;  358,450
380,068;  360,250;  341,600;  349,450
380,144;  370,450;  398,600;  393,450
380,220;  373,550;  388,600;  391,450
380,295;  351,250;  356,600;  356,450
380,371;  361,850;  358,600;  361,450
380,446;  370,350;  418,600;  376,450
380,522;  340,750;  340,600;  360,450
380,597;  358,750;  377,600;  349,450
380,673;  395,950;  395,600;  384,450
380,748;  356,150;  338,600;  344,450
380,824;  351,950;  364,600;  362,450
380,899;  383,450;  371,600;  364,450
380,975;  369,750;  388,600;  402,450
381,050;  347,050;  363,600;  336,450
381,126;  365,750;  370,600;  362,450
381,201;  402,750;  407,600;  405,450
381,277;  369,550;  367,600;  390,450
381,352;  379,750;  389,600;  377,450
381,427;  368,350;  359,600;  370,450
381,503;  382,750;  394,600;  377,450
381,578;  354,750;  363,600;  360,450
381,653;  362,350;  381,600;  387,450
381,729;  354,950;  346,600;  360,450
381,804;  369,450;  373,600;  375,450
381,879;  383,050;  380,600;  366,450
381,955;  352,450;  343,600;  346,450
382,030;  348,050;  346,600;  339,450
382,105;  373,450;  372,600;  372,450
382,181;  358,950;  382,600;  367,450
382,256;  376,350;  373,600;  383,450
382,331;  369,650;  371,600;  375,450
382,406;  346,850;  368,600;  343,450
382,482;  371,050;  371,600;  380,450
382,557;  351,150;  362,600;  335,450
382,632;  370,850;  364,600;  365,450
382,707;  359,550;  393,600;  349,450
382,782;  362,150;  395,600;  385,450
382,857;  362,450;  373,600;  356,450
382,933;  354,750;  354,600;  349,450
383,008;  354,450;  325,600;  336,450
383,083;  371,450;  382,600;  360,450
383,158;  377,050;  375,600;  368,450
383,233;  370,450;  368,600;  362,450
383,308;  364,850;  360,600;  326,450
383,383;  389,250;  394,600;  390,450
383,458;  358,750;  344,600;  340,450
383,533;  346,750;  331,600;  334,450
383,608;  386,150;  367,600;  381,450
383,683;  390,650;  381,600;  367,450
383,758;  380,450;  398,600;  353,450
383,833;  367,950;  343,600;  350,450
383,908;  337,950;  321,600;  367,450
383,983;  343,850;  365,600;  328,450
384,058;  357,350;  340,600;  383,450
384,133;  367,750;  372,600;  376,450
384,208;  372,550;  395,600;  375,450
384,283;  348,850;  362,600;  321,450
384,358;  392,750;  392,600;  390,450
384,433;  349,450;  347,600;  341,450
384,508;  364,850;  339,600;  338,450
384,583;  374,850;  337,600;  355,450
384,658;  379,950;  352,600;  366,450
384,732;  328,450;  329,600;  319,450
384,807;  360,950;  347,600;  366,450
384,882;  374,450;  391,600;  349,450
384,957;  361,450;  348,600;  345,450
385,032;  378,450;  383,600;  373,450
385,106;  373,350;  342,600;  369,450
385,181;  358,550;  353,600;  359,450
385,256;  373,550;  367,600;  336,450
385,331;  368,550;  375,600;  364,450
385,405;  384,550;  383,600;  400,450
385,480;  361,050;  362,600;  372,450
385,555;  401,750;  402,600;  399,450
385,630;  392,650;  369,600;  370,450
385,704;  370,050;  353,600;  390,450
385,779;  365,850;  363,600;  368,450
385,854;  373,150;  364,600;  380,450
385,928;  358,950;  348,600;  365,450
386,003;  397,850;  390,600;  397,450
386,078;  367,150;  374,600;  369,450
386,152;  403,050;  391,600;  412,450
386,227;  361,350;  347,600;  354,450
386,301;  380,350;  389,600;  348,450
386,376;  360,050;  352,600;  346,450
386,450;  375,950;  356,600;  374,450
386,525;  365,950;  357,600;  376,450
386,600;  382,650;  367,600;  381,450
386,674;  360,550;  374,600;  364,450
386,749;  380,150;  395,600;  359,450
386,823;  374,950;  363,600;  377,450
386,898;  382,550;  386,600;  374,450
386,972;  380,450;  383,600;  354,450
387,047;  376,850;  368,600;  364,450
387,121;  383,550;  375,600;  363,450
387,195;  359,250;  359,600;  352,450
387,270;  391,950;  384,600;  385,450
387,344;  397,050;  429,600;  393,450
387,419;  390,550;  367,600;  412,450
387,493;  371,350;  371,600;  377,450
387,567;  352,750;  351,600;  336,450
387,642;  405,250;  383,600;  402,450
387,716;  372,450;  368,600;  378,450
387,790;  365,150;  337,600;  366,450
387,865;  374,150;  351,600;  364,450
387,939;  414,650;  405,600;  406,450
388,013;  379,650;  377,600;  417,450
388,088;  375,050;  361,600;  363,450
388,162;  371,650;  366,600;  355,450
388,236;  366,850;  381,600;  416,450
388,310;  364,450;  368,600;  361,450
388,385;  398,050;  324,600;  400,450
388,459;  371,750;  362,600;  379,450
388,533;  357,850;  378,600;  365,450
388,607;  361,550;  374,600;  378,450
388,682;  370,750;  369,600;  394,450
388,756;  346,650;  375,600;  378,450
388,830;  388,050;  378,600;  413,450
388,904;  382,950;  382,600;  382,450
388,978;  362,350;  368,600;  361,450
389,052;  376,350;  390,600;  343,450
389,126;  367,850;  353,600;  387,450
389,200;  371,750;  376,600;  362,450
389,275;  365,150;  382,600;  389,450
389,349;  369,550;  405,600;  380,450
389,423;  368,650;  380,600;  369,450
389,497;  374,550;  426,600;  377,450
389,571;  365,250;  391,600;  375,450
389,645;  375,950;  378,600;  388,450
389,719;  376,550;  384,600;  388,450
389,793;  346,250;  341,600;  322,450
389,867;  397,050;  410,600;  386,450
389,941;  377,450;  367,600;  369,450
390,015;  365,650;  348,600;  372,450
390,089;  359,750;  369,600;  344,450
390,163;  374,050;  368,600;  375,450
390,237;  371,750;  356,600;  361,450
390,310;  373,050;  393,600;  366,450
390,384;  369,850;  383,600;  344,450
390,458;  402,550;  414,600;  432,450
390,532;  383,250;  401,600;  395,450
390,606;  365,550;  361,600;  328,450
390,680;  366,550;  354,600;  373,450
390,754;  362,950;  373,600;  342,450
390,827;  391,650;  382,600;  388,450
390,901;  385,650;  362,600;  377,450
390,975;  365,750;  366,600;  368,450
391,049;  359,950;  374,600;  392,450
391,123;  355,050;  342,600;  367,450
391,196;  371,150;  344,600;  368,450
391,270;  366,750;  372,600;  366,450
391,344;  364,850;  384,600;  374,450
391,418;  375,050;  368,600;  366,450
391,491;  360,550;  362,600;  365,450
391,565;  361,350;  341,600;  346,450
391,639;  402,250;  379,600;  381,450
391,712;  384,550;  373,600;  385,450
391,786;  375,650;  401,600;  429,450
391,860;  371,350;  354,600;  354,450
391,933;  378,150;  366,600;  333,450
392,007;  372,850;  393,600;  364,450
392,081;  398,450;  404,600;  366,450
392,154;  379,050;  366,600;  394,450
392,228;  401,750;  392,600;  387,450
392,301;  377,850;  366,600;  402,450
392,375;  390,750;  394,600;  406,450
392,448;  379,750;  397,600;  375,450
392,522;  371,750;  382,600;  383,450
392,595;  370,650;  389,600;  365,450
392,669;  374,750;  386,600;  367,450
392,742;  399,850;  378,600;  401,450
392,816;  405,850;  376,600;  383,450
392,889;  389,250;  392,600;  401,450
392,963;  404,450;  400,600;  382,450
393,036;  379,550;  366,600;  401,450
393,110;  399,450;  388,600;  376,450
393,183;  399,750;  407,600;  399,450
393,257;  409,250;  437,600;  408,450
393,330;  369,650;  373,600;  391,450
393,403;  380,750;  410,600;  372,450
393,477;  352,950;  347,600;  364,450
393,550;  384,450;  413,600;  387,450
393,623;  393,250;  374,600;  402,450
393,697;  405,550;  404,600;  411,450
393,770;  373,550;  386,600;  364,450
393,843;  413,550;  419,600;  412,450
393,917;  388,850;  400,600;  407,450
393,990;  414,750;  378,600;  395,450
394,063;  390,250;  403,600;  375,450
394,136;  392,950;  390,600;  390,450
394,210;  379,550;  393,600;  380,450
394,283;  405,650;  385,600;  395,450
394,356;  393,150;  410,600;  373,450
394,429;  393,050;  399,600;  357,450
394,502;  382,550;  404,600;  373,450
394,576;  414,650;  416,600;  404,450
394,649;  370,550;  376,600;  381,450
394,722;  401,850;  390,600;  390,450
394,795;  394,150;  413,600;  406,450
394,868;  382,950;  369,600;  390,450
394,941;  378,850;  371,600;  368,450
395,014;  413,850;  419,600;  416,450
395,088;  402,550;  404,600;  391,450
395,161;  390,650;  402,600;  399,450
395,234;  409,550;  390,600;  397,450
395,307;  408,650;  413,600;  388,450
395,380;  388,350;  393,600;  392,450
395,453;  446,350;  439,600;  425,450
395,526;  405,150;  430,600;  407,450
395,599;  425,850;  422,600;  432,450
395,672;  385,750;  378,600;  408,450
395,745;  416,750;  400,600;  390,450
395,818;  379,250;  385,600;  376,450
395,891;  389,250;  408,600;  379,450
395,964;  413,250;  398,600;  436,450
396,036;  385,150;  400,600;  390,450
396,109;  395,150;  399,600;  381,450
396,182;  402,950;  392,600;  382,450
396,255;  394,550;  417,600;  383,450
396,328;  414,150;  412,600;  432,450
396,401;  375,350;  363,600;  381,450
396,474;  377,650;  399,600;  360,450
396,547;  411,050;  411,600;  417,450
396,619;  384,150;  384,600;  393,450
396,692;  406,450;  371,600;  354,450
396,765;  368,450;  375,600;  376,450
396,838;  388,150;  367,600;  390,450
396,911;  362,950;  363,600;  352,450
396,983;  393,350;  385,600;  396,450
397,056;  378,050;  375,600;  367,450
397,129;  384,550;  369,600;  368,450
397,201;  380,550;  413,600;  395,450
397,274;  394,050;  379,600;  382,450
397,347;  359,850;  364,600;  378,450
397,420;  392,850;  373,600;  379,450
397,492;  381,750;  404,600;  380,450
397,565;  377,550;  372,600;  365,450
397,637;  365,150;  371,600;  361,450
397,710;  351,150;  349,600;  341,450
397,783;  409,550;  444,600;  401,450
397,855;  343,650;  363,600;  346,450
397,928;  371,850;  381,600;  330,450
398,000;  398,250;  369,600;  384,450
398,073;  385,550;  376,600;  372,450
398,146;  376,750;  365,600;  358,450
398,218;  389,050;  417,600;  363,450
398,291;  394,050;  398,600;  385,450
398,363;  382,650;  370,600;  358,450
398,436;  368,850;  369,600;  360,450
398,508;  378,350;  378,600;  369,450
398,581;  379,550;  368,600;  367,450
398,653;  372,550;  318,600;  382,450
398,726;  381,050;  376,600;  371,450
398,798;  384,050;  390,600;  376,450
398,870;  391,850;  374,600;  374,450
398,943;  364,350;  371,600;  357,450
399,015;  359,350;  362,600;  383,450
399,088;  386,550;  377,600;  373,450
399,160;  357,150;  370,600;  348,450
399,232;  351,550;  332,600;  349,450
399,305;  366,250;  379,600;  362,450
399,377;  381,450;  350,600;  343,450
399,449;  383,550;  398,600;  388,450
399,522;  423,950;  442,600;  416,450
399,594;  356,750;  359,600;  346,450
399,666;  380,150;  393,600;  361,450
399,738;  376,950;  378,600;  375,450
399,811;  371,850;  370,600;  388,450
399,883;  387,950;  392,600;  378,450
399,955;  393,550;  429,600;  331,450
400,027;  345,650;  342,600;  364,450
400,100;  407,950;  402,600;  427,450
400,172;  347,750;  360,600;  354,450
400,244;  381,150;  369,600;  361,450
400,316;  383,950;  396,600;  381,450
400,388;  385,350;  408,600;  368,450
400,460;  352,350;  350,600;  359,450
400,532;  335,150;  329,600;  337,450
400,605;  374,350;  378,600;  368,450
400,677;  408,150;  389,600;  380,450
400,749;  394,850;  403,600;  406,450
400,821;  371,450;  384,600;  385,450
400,893;  371,150;  364,600;  384,450
400,965;  400,550;  390,600;  380,450
401,037;  380,650;  376,600;  402,450
401,109;  365,750;  363,600;  365,450
401,181;  385,150;  383,600;  398,450

