p10promedio
Integration time [ms]:   0,150
Averaging Nr. [scans]: 10
Smoothing Nr. [pixels]: 0
Data measured with spectrometer [name]: 7416147SP
Wave   ;Sample   ;Dark     ;Reference
[nm]   ;[counts] ;[counts] ;[counts] 

230,218;  291,055;  284,600;  274,450
230,311;  313,155;  306,600;  296,450
230,404;  302,955;  298,600;  326,450
230,497;  317,655;  295,600;  309,450
230,591;  333,355;  342,600;  328,450
230,684;  331,555;  317,600;  333,450
230,777;  314,755;  318,600;  312,450
230,870;  307,055;  330,600;  321,450
230,964;  305,955;  321,600;  306,450
231,057;  340,955;  306,600;  332,450
231,150;  333,855;  320,600;  304,450
231,243;  321,955;  310,600;  310,450
231,336;  336,255;  334,600;  326,450
231,430;  317,855;  320,600;  279,450
231,523;  321,255;  346,600;  304,450
231,616;  300,955;  297,600;  290,450
231,709;  331,555;  328,600;  315,450
231,802;  303,355;  280,600;  295,450
231,895;  306,555;  293,600;  313,450
231,988;  332,955;  312,600;  320,450
232,082;  305,555;  316,600;  281,450
232,175;  317,655;  289,600;  279,450
232,268;  307,855;  319,600;  301,450
232,361;  313,755;  288,600;  264,450
232,454;  320,655;  297,600;  320,450
232,547;  334,855;  333,600;  272,450
232,640;  291,855;  314,600;  287,450
232,733;  340,455;  297,600;  300,450
232,826;  302,355;  303,600;  270,450
232,919;  317,755;  318,600;  294,450
233,012;  298,655;  322,600;  292,450
233,105;  307,055;  318,600;  283,450
233,199;  312,255;  324,600;  298,450
233,292;  310,255;  293,600;  307,450
233,385;  269,555;  262,600;  233,450
233,478;  308,655;  302,600;  272,450
233,571;  337,955;  314,600;  293,450
233,664;  309,755;  341,600;  283,450
233,757;  293,155;  254,600;  231,450
233,850;  293,555;  272,600;  248,450
233,943;  306,255;  298,600;  272,450
234,035;  314,055;  318,600;  292,450
234,128;  301,455;  282,600;  265,450
234,221;  311,155;  310,600;  293,450
234,314;  309,555;  333,600;  318,450
234,407;  331,255;  338,600;  286,450
234,500;  290,055;  286,600;  280,450
234,593;  300,055;  280,600;  290,450
234,686;  306,955;  276,600;  256,450
234,779;  303,455;  270,600;  275,450
234,872;  288,955;  276,600;  261,450
234,965;  297,755;  298,600;  286,450
235,058;  288,455;  269,600;  263,450
235,150;  302,955;  311,600;  286,450
235,243;  296,555;  280,600;  311,450
235,336;  306,655;  317,600;  296,450
235,429;  289,555;  258,600;  241,450
235,522;  339,055;  352,600;  293,450
235,615;  273,755;  309,600;  253,450
235,707;  289,655;  289,600;  277,450
235,800;  300,555;  302,600;  268,450
235,893;  307,655;  328,600;  262,450
235,986;  302,355;  305,600;  312,450
236,079;  296,355;  310,600;  308,450
236,171;  282,755;  272,600;  270,450
236,264;  330,555;  310,600;  282,450
236,357;  299,155;  289,600;  297,450
236,450;  328,055;  314,600;  308,450
236,542;  282,155;  286,600;  258,450
236,635;  325,355;  319,600;  287,450
236,728;  289,355;  276,600;  273,450
236,821;  291,855;  270,600;  268,450
236,913;  293,355;  326,600;  268,450
237,006;  276,855;  300,600;  257,450
237,099;  306,255;  289,600;  271,450
237,191;  316,855;  345,600;  288,450
237,284;  279,855;  256,600;  282,450
237,377;  304,655;  294,600;  312,450
237,470;  297,655;  291,600;  256,450
237,562;  285,355;  266,600;  261,450
237,655;  338,155;  342,600;  294,450
237,747;  307,755;  325,600;  263,450
237,840;  326,355;  292,600;  302,450
237,933;  305,355;  327,600;  284,450
238,025;  308,155;  338,600;  306,450
238,118;  303,055;  306,600;  287,450
238,211;  284,355;  282,600;  227,450
238,303;  272,055;  277,600;  273,450
238,396;  276,055;  289,600;  270,450
238,488;  307,755;  300,600;  281,450
238,581;  301,855;  306,600;  235,450
238,673;  295,655;  304,600;  273,450
238,766;  292,155;  268,600;  282,450
238,859;  273,155;  282,600;  277,450
238,951;  284,855;  295,600;  280,450
239,044;  283,755;  270,600;  283,450
239,136;  283,255;  269,600;  284,450
239,229;  289,555;  297,600;  291,450
239,321;  286,255;  262,600;  248,450
239,414;  306,455;  289,600;  288,450
239,506;  298,455;  280,600;  267,450
239,599;  328,355;  352,600;  292,450
239,691;  300,155;  306,600;  269,450
239,784;  325,955;  296,600;  288,450
239,876;  312,255;  280,600;  288,450
239,969;  303,655;  287,600;  281,450
240,061;  282,855;  277,600;  262,450
240,153;  285,955;  260,600;  278,450
240,246;  308,855;  295,600;  292,450
240,338;  318,955;  309,600;  324,450
240,431;  282,855;  277,600;  282,450
240,523;  275,255;  300,600;  237,450
240,615;  310,255;  293,600;  321,450
240,708;  320,455;  355,600;  292,450
240,800;  302,455;  302,600;  288,450
240,893;  282,355;  274,600;  261,450
240,985;  299,655;  321,600;  270,450
241,077;  283,055;  268,600;  262,450
241,170;  311,355;  313,600;  286,450
241,262;  309,355;  284,600;  284,450
241,354;  262,555;  246,600;  244,450
241,447;  293,655;  286,600;  271,450
241,539;  287,755;  295,600;  247,450
241,631;  333,155;  312,600;  279,450
241,724;  274,955;  261,600;  246,450
241,816;  287,955;  258,600;  264,450
241,908;  286,555;  278,600;  263,450
242,000;  288,555;  283,600;  263,450
242,093;  281,955;  303,600;  261,450
242,185;  286,355;  306,600;  269,450
242,277;  285,055;  282,600;  242,450
242,369;  296,955;  278,600;  269,450
242,462;  289,155;  271,600;  247,450
242,554;  284,455;  253,600;  266,450
242,646;  303,955;  282,600;  270,450
242,738;  324,655;  320,600;  281,450
242,830;  265,855;  292,600;  230,450
242,923;  315,155;  309,600;  303,450
243,015;  263,855;  288,600;  269,450
243,107;  290,455;  280,600;  253,450
243,199;  293,255;  309,600;  300,450
243,291;  292,755;  319,600;  253,450
243,383;  265,155;  240,600;  273,450
243,476;  270,755;  257,600;  282,450
243,568;  299,055;  293,600;  284,450
243,660;  287,055;  260,600;  268,450
243,752;  292,155;  305,600;  270,450
243,844;  316,055;  299,600;  284,450
243,936;  308,855;  316,600;  299,450
244,028;  322,055;  332,600;  290,450
244,120;  266,855;  267,600;  230,450
244,212;  297,855;  298,600;  289,450
244,305;  257,355;  267,600;  270,450
244,397;  311,655;  315,600;  267,450
244,489;  312,055;  303,600;  285,450
244,581;  302,055;  301,600;  279,450
244,673;  286,655;  286,600;  252,450
244,765;  289,555;  277,600;  293,450
244,857;  292,255;  303,600;  251,450
244,949;  294,255;  305,600;  282,450
245,041;  263,055;  250,600;  223,450
245,133;  309,455;  294,600;  292,450
245,225;  284,155;  258,600;  248,450
245,317;  299,155;  253,600;  267,450
245,409;  277,955;  282,600;  263,450
245,501;  302,755;  286,600;  265,450
245,593;  298,555;  328,600;  278,450
245,685;  304,555;  330,600;  286,450
245,776;  292,255;  298,600;  267,450
245,868;  279,455;  308,600;  263,450
245,960;  270,255;  242,600;  252,450
246,052;  317,955;  291,600;  307,450
246,144;  308,455;  282,600;  285,450
246,236;  296,055;  296,600;  257,450
246,328;  302,355;  285,600;  287,450
246,420;  288,055;  282,600;  270,450
246,512;  319,855;  303,600;  295,450
246,604;  287,555;  280,600;  278,450
246,695;  274,655;  275,600;  268,450
246,787;  294,555;  288,600;  299,450
246,879;  304,855;  296,600;  275,450
246,971;  309,255;  305,600;  285,450
247,063;  288,955;  281,600;  253,450
247,155;  321,855;  295,600;  240,450
247,246;  295,955;  305,600;  285,450
247,338;  294,355;  297,600;  287,450
247,430;  309,155;  298,600;  312,450
247,522;  312,455;  294,600;  294,450
247,613;  310,455;  287,600;  278,450
247,705;  309,455;  302,600;  286,450
247,797;  326,155;  322,600;  301,450
247,889;  318,355;  294,600;  286,450
247,980;  327,755;  318,600;  273,450
248,072;  323,155;  315,600;  275,450
248,164;  347,655;  368,600;  297,450
248,256;  300,855;  280,600;  302,450
248,347;  317,255;  312,600;  275,450
248,439;  293,055;  302,600;  260,450
248,531;  319,455;  301,600;  297,450
248,622;  313,855;  315,600;  318,450
248,714;  291,855;  303,600;  257,450
248,806;  295,755;  301,600;  287,450
248,897;  303,955;  266,600;  290,450
248,989;  286,255;  260,600;  246,450
249,081;  298,655;  291,600;  305,450
249,172;  300,855;  289,600;  264,450
249,264;  282,955;  310,600;  303,450
249,356;  292,055;  274,600;  253,450
249,447;  296,155;  287,600;  283,450
249,539;  292,555;  289,600;  288,450
249,630;  304,955;  296,600;  286,450
249,722;  333,755;  310,600;  305,450
249,813;  288,155;  302,600;  256,450
249,905;  310,555;  319,600;  291,450
249,997;  291,155;  270,600;  248,450
250,088;  303,255;  295,600;  285,450
250,180;  300,555;  280,600;  288,450
250,271;  293,155;  296,600;  268,450
250,363;  328,555;  329,600;  307,450
250,454;  293,855;  268,600;  238,450
250,546;  318,655;  271,600;  272,450
250,637;  275,455;  285,600;  242,450
250,729;  288,055;  267,600;  250,450
250,820;  308,355;  306,600;  297,450
250,912;  286,155;  299,600;  243,450
251,003;  302,255;  285,600;  296,450
251,095;  306,555;  296,600;  273,450
251,186;  290,155;  269,600;  253,450
251,277;  302,155;  276,600;  290,450
251,369;  292,855;  295,600;  275,450
251,460;  299,555;  272,600;  272,450
251,552;  308,255;  293,600;  292,450
251,643;  301,155;  292,600;  276,450
251,735;  307,855;  303,600;  241,450
251,826;  290,855;  313,600;  259,450
251,917;  324,655;  325,600;  258,450
252,009;  324,455;  338,600;  254,450
252,100;  325,355;  343,600;  266,450
252,191;  347,055;  337,600;  260,450
252,283;  343,255;  328,600;  299,450
252,374;  366,955;  372,600;  289,450
252,465;  389,955;  390,600;  301,450
252,557;  390,155;  393,600;  251,450
252,648;  385,555;  378,600;  258,450
252,739;  425,455;  397,600;  267,450
252,831;  435,755;  439,600;  250,450
252,922;  458,555;  440,600;  266,450
253,013;  500,855;  520,600;  241,450
253,104;  567,055;  576,600;  255,450
253,196;  671,055;  712,600;  265,450
253,287;  842,355;  807,600;  289,450
253,378; 1213,155; 1233,600;  257,450
253,469; 4207,455; 4083,600;  246,450
253,561;22982,555;23239,600;  253,450
253,652;42064,754;42949,602;  272,450
253,743; 5687,755; 5893,600;  210,450
253,834;  624,655;  622,600;  260,450
253,926;  504,555;  531,600;  249,450
254,017;  469,255;  459,600;  280,450
254,108;  465,955;  528,600;  290,450
254,199;  430,455;  418,600;  277,450
254,290;  440,655;  380,600;  290,450
254,381;  412,255;  429,600;  276,450
254,472;  401,355;  437,600;  250,450
254,564;  412,755;  411,600;  327,450
254,655;  392,655;  392,600;  304,450
254,746;  338,155;  345,600;  225,450
254,837;  387,455;  372,600;  282,450
254,928;  343,055;  368,600;  247,450
255,019;  360,455;  375,600;  281,450
255,110;  366,355;  357,600;  302,450
255,201;  342,755;  318,600;  284,450
255,292;  378,355;  381,600;  271,450
255,383;  342,155;  347,600;  265,450
255,474;  330,255;  329,600;  248,450
255,566;  345,655;  366,600;  271,450
255,657;  340,455;  350,600;  306,450
255,748;  307,555;  292,600;  235,450
255,839;  317,955;  331,600;  282,450
255,930;  326,655;  292,600;  302,450
256,021;  331,355;  336,600;  297,450
256,112;  309,755;  296,600;  257,450
256,203;  338,955;  339,600;  315,450
256,294;  328,855;  321,600;  265,450
256,384;  300,155;  279,600;  261,450
256,475;  319,555;  289,600;  284,450
256,566;  294,755;  297,600;  274,450
256,657;  289,055;  291,600;  267,450
256,748;  294,055;  302,600;  280,450
256,839;  291,555;  281,600;  274,450
256,930;  302,455;  278,600;  260,450
257,021;  319,355;  328,600;  283,450
257,112;  317,155;  311,600;  327,450
257,203;  267,555;  268,600;  240,450
257,294;  273,155;  276,600;  257,450
257,385;  300,255;  284,600;  272,450
257,475;  296,955;  277,600;  255,450
257,566;  307,355;  313,600;  267,450
257,657;  283,355;  339,600;  264,450
257,748;  279,755;  283,600;  252,450
257,839;  295,355;  319,600;  306,450
257,930;  292,055;  276,600;  275,450
258,020;  280,655;  278,600;  281,450
258,111;  269,855;  285,600;  256,450
258,202;  303,155;  309,600;  258,450
258,293;  291,355;  267,600;  255,450
258,384;  317,055;  329,600;  295,450
258,474;  295,455;  296,600;  244,450
258,565;  274,755;  250,600;  252,450
258,656;  302,555;  306,600;  257,450
258,747;  278,155;  293,600;  255,450
258,837;  286,055;  266,600;  231,450
258,928;  288,855;  247,600;  280,450
259,019;  271,355;  272,600;  264,450
259,109;  270,655;  264,600;  254,450
259,200;  292,755;  292,600;  291,450
259,291;  276,655;  246,600;  297,450
259,381;  293,755;  309,600;  264,450
259,472;  304,655;  299,600;  272,450
259,563;  311,455;  307,600;  273,450
259,653;  281,355;  281,600;  247,450
259,744;  276,255;  280,600;  260,450
259,835;  311,055;  284,600;  274,450
259,925;  274,755;  257,600;  276,450
260,016;  293,555;  303,600;  282,450
260,107;  266,755;  264,600;  265,450
260,197;  286,755;  279,600;  258,450
260,288;  276,755;  263,600;  273,450
260,378;  281,255;  274,600;  244,450
260,469;  302,955;  299,600;  273,450
260,560;  286,455;  267,600;  276,450
260,650;  282,955;  269,600;  265,450
260,741;  285,355;  279,600;  256,450
260,831;  273,155;  246,600;  276,450
260,922;  272,155;  271,600;  258,450
261,012;  278,455;  271,600;  256,450
261,103;  299,455;  320,600;  294,450
261,193;  301,555;  317,600;  320,450
261,284;  274,755;  256,600;  254,450
261,374;  302,355;  295,600;  253,450
261,465;  277,555;  321,600;  304,450
261,555;  273,455;  271,600;  275,450
261,646;  295,455;  290,600;  300,450
261,736;  289,455;  265,600;  287,450
261,827;  283,055;  293,600;  256,450
261,917;  311,855;  294,600;  344,450
262,007;  283,555;  269,600;  289,450
262,098;  276,955;  334,600;  256,450
262,188;  326,455;  316,600;  305,450
262,279;  304,055;  290,600;  292,450
262,369;  287,155;  276,600;  282,450
262,459;  288,855;  262,600;  260,450
262,550;  307,955;  314,600;  290,450
262,640;  281,355;  261,600;  274,450
262,731;  300,855;  302,600;  298,450
262,821;  314,555;  287,600;  323,450
262,911;  285,055;  312,600;  268,450
263,002;  286,555;  278,600;  271,450
263,092;  301,155;  292,600;  309,450
263,182;  290,855;  280,600;  257,450
263,273;  282,355;  277,600;  261,450
263,363;  294,955;  309,600;  284,450
263,453;  273,255;  266,600;  259,450
263,543;  287,355;  289,600;  326,450
263,634;  272,555;  263,600;  262,450
263,724;  282,155;  278,600;  276,450
263,814;  309,255;  304,600;  288,450
263,904;  281,855;  270,600;  267,450
263,995;  325,155;  306,600;  321,450
264,085;  299,955;  301,600;  259,450
264,175;  293,655;  284,600;  306,450
264,265;  320,155;  305,600;  298,450
264,356;  274,855;  260,600;  289,450
264,446;  312,255;  296,600;  298,450
264,536;  298,355;  270,600;  297,450
264,626;  321,255;  315,600;  295,450
264,716;  296,255;  330,600;  277,450
264,806;  325,455;  327,600;  306,450
264,897;  261,155;  255,600;  273,450
264,987;  307,755;  310,600;  286,450
265,077;  307,055;  297,600;  285,450
265,167;  368,255;  394,600;  346,450
265,257;  332,455;  333,600;  273,450
265,347;  320,655;  331,600;  286,450
265,437;  320,055;  304,600;  289,450
265,527;  302,455;  314,600;  292,450
265,617;  289,055;  292,600;  265,450
265,708;  328,355;  330,600;  308,450
265,798;  302,355;  315,600;  301,450
265,888;  298,155;  275,600;  270,450
265,978;  287,655;  274,600;  242,450
266,068;  318,355;  291,600;  316,450
266,158;  300,855;  288,600;  254,450
266,248;  274,655;  305,600;  248,450
266,338;  308,755;  307,600;  293,450
266,428;  298,255;  294,600;  259,450
266,518;  304,855;  321,600;  320,450
266,608;  294,455;  245,600;  273,450
266,698;  271,855;  284,600;  256,450
266,788;  271,155;  263,600;  248,450
266,878;  328,755;  350,600;  317,450
266,968;  318,955;  282,600;  304,450
267,058;  310,255;  280,600;  292,450
267,147;  297,155;  327,600;  300,450
267,237;  290,355;  293,600;  276,450
267,327;  291,255;  292,600;  276,450
267,417;  296,855;  320,600;  264,450
267,507;  290,255;  297,600;  294,450
267,597;  278,855;  273,600;  272,450
267,687;  281,755;  268,600;  286,450
267,777;  286,555;  267,600;  270,450
267,867;  311,555;  321,600;  296,450
267,956;  301,555;  282,600;  257,450
268,046;  302,255;  306,600;  298,450
268,136;  304,755;  265,600;  291,450
268,226;  281,055;  269,600;  261,450
268,316;  285,655;  266,600;  262,450
268,406;  288,455;  268,600;  338,450
268,495;  279,455;  278,600;  259,450
268,585;  304,955;  304,600;  263,450
268,675;  277,255;  296,600;  260,450
268,765;  295,755;  296,600;  287,450
268,854;  290,555;  277,600;  291,450
268,944;  289,755;  288,600;  299,450
269,034;  280,955;  313,600;  279,450
269,124;  297,855;  283,600;  286,450
269,213;  287,455;  277,600;  255,450
269,303;  290,055;  290,600;  247,450
269,393;  303,555;  265,600;  307,450
269,483;  298,755;  338,600;  273,450
269,572;  287,655;  295,600;  243,450
269,662;  282,355;  286,600;  301,450
269,752;  314,955;  320,600;  299,450
269,841;  277,755;  270,600;  247,450
269,931;  281,055;  264,600;  276,450
270,021;  294,755;  299,600;  295,450
270,110;  289,255;  286,600;  268,450
270,200;  290,955;  329,600;  299,450
270,289;  281,455;  258,600;  279,450
270,379;  298,555;  315,600;  282,450
270,469;  291,055;  297,600;  273,450
270,558;  299,355;  300,600;  286,450
270,648;  274,655;  266,600;  245,450
270,737;  305,155;  288,600;  271,450
270,827;  315,655;  279,600;  263,450
270,916;  289,355;  266,600;  280,450
271,006;  292,055;  287,600;  287,450
271,096;  313,355;  312,600;  334,450
271,185;  288,555;  307,600;  299,450
271,275;  306,955;  305,600;  279,450
271,364;  283,955;  300,600;  286,450
271,454;  307,755;  301,600;  273,450
271,543;  297,255;  295,600;  279,450
271,633;  285,455;  293,600;  257,450
271,722;  293,855;  240,600;  257,450
271,812;  281,355;  255,600;  299,450
271,901;  294,955;  276,600;  286,450
271,990;  290,855;  293,600;  267,450
272,080;  295,955;  282,600;  284,450
272,169;  309,955;  339,600;  288,450
272,259;  293,755;  319,600;  275,450
272,348;  298,555;  291,600;  305,450
272,438;  301,355;  302,600;  301,450
272,527;  302,555;  288,600;  290,450
272,616;  306,155;  295,600;  300,450
272,706;  324,955;  319,600;  313,450
272,795;  320,155;  285,600;  290,450
272,884;  296,955;  302,600;  294,450
272,974;  301,355;  281,600;  279,450
273,063;  348,355;  361,600;  290,450
273,152;  308,455;  299,600;  296,450
273,242;  320,155;  296,600;  311,450
273,331;  317,055;  306,600;  299,450
273,420;  303,655;  296,600;  313,450
273,510;  308,355;  292,600;  311,450
273,599;  309,555;  323,600;  312,450
273,688;  307,155;  311,600;  299,450
273,778;  284,155;  266,600;  259,450
273,867;  324,355;  287,600;  312,450
273,956;  301,855;  303,600;  273,450
274,045;  263,655;  263,600;  236,450
274,135;  309,655;  317,600;  317,450
274,224;  286,755;  316,600;  295,450
274,313;  304,455;  299,600;  294,450
274,402;  272,855;  263,600;  266,450
274,491;  319,855;  277,600;  286,450
274,581;  303,055;  302,600;  266,450
274,670;  298,855;  311,600;  303,450
274,759;  299,255;  303,600;  283,450
274,848;  276,055;  275,600;  301,450
274,937;  290,855;  276,600;  293,450
275,026;  286,055;  298,600;  255,450
275,116;  319,755;  323,600;  309,450
275,205;  290,255;  263,600;  231,450
275,294;  330,555;  333,600;  302,450
275,383;  298,455;  253,600;  278,450
275,472;  281,055;  286,600;  299,450
275,561;  291,555;  299,600;  300,450
275,650;  305,955;  289,600;  281,450
275,739;  287,855;  268,600;  287,450
275,828;  269,655;  262,600;  259,450
275,917;  308,155;  318,600;  305,450
276,006;  293,555;  255,600;  304,450
276,095;  297,955;  276,600;  294,450
276,184;  308,355;  317,600;  317,450
276,273;  301,855;  270,600;  297,450
276,362;  280,655;  260,600;  256,450
276,451;  287,555;  271,600;  286,450
276,540;  286,655;  259,600;  271,450
276,629;  284,855;  274,600;  290,450
276,718;  266,455;  268,600;  258,450
276,807;  274,855;  275,600;  256,450
276,896;  288,855;  269,600;  277,450
276,985;  288,255;  287,600;  255,450
277,074;  301,355;  270,600;  267,450
277,163;  295,055;  289,600;  281,450
277,252;  270,755;  269,600;  278,450
277,341;  282,155;  272,600;  248,450
277,430;  281,455;  239,600;  255,450
277,519;  299,455;  304,600;  293,450
277,608;  268,555;  254,600;  244,450
277,696;  261,055;  272,600;  279,450
277,785;  286,755;  255,600;  276,450
277,874;  294,255;  285,600;  259,450
277,963;  296,155;  273,600;  248,450
278,052;  264,155;  264,600;  286,450
278,141;  286,255;  289,600;  267,450
278,229;  292,555;  279,600;  278,450
278,318;  271,755;  278,600;  269,450
278,407;  285,655;  288,600;  264,450
278,496;  287,855;  319,600;  277,450
278,585;  300,255;  288,600;  297,450
278,673;  273,355;  257,600;  251,450
278,762;  263,655;  238,600;  264,450
278,851;  292,655;  293,600;  272,450
278,940;  299,255;  293,600;  318,450
279,028;  289,155;  271,600;  284,450
279,117;  285,255;  290,600;  283,450
279,206;  279,355;  260,600;  254,450
279,294;  274,655;  280,600;  268,450
279,383;  285,655;  272,600;  289,450
279,472;  303,955;  311,600;  252,450
279,561;  283,655;  264,600;  275,450
279,649;  313,055;  305,600;  283,450
279,738;  250,755;  229,600;  266,450
279,827;  302,155;  285,600;  272,450
279,915;  270,355;  283,600;  248,450
280,004;  282,855;  273,600;  285,450
280,092;  306,855;  286,600;  275,450
280,181;  286,655;  284,600;  249,450
280,270;  292,055;  280,600;  236,450
280,358;  302,055;  299,600;  288,450
280,447;  269,955;  246,600;  240,450
280,535;  282,155;  284,600;  259,450
280,624;  274,755;  291,600;  256,450
280,713;  277,655;  267,600;  266,450
280,801;  290,255;  303,600;  274,450
280,890;  291,355;  262,600;  274,450
280,978;  277,555;  267,600;  239,450
281,067;  251,255;  229,600;  244,450
281,155;  284,955;  267,600;  279,450
281,244;  321,755;  301,600;  299,450
281,332;  293,055;  252,600;  297,450
281,421;  268,055;  273,600;  229,450
281,509;  276,055;  266,600;  268,450
281,598;  261,655;  255,600;  241,450
281,686;  290,455;  300,600;  277,450
281,775;  293,355;  283,600;  280,450
281,863;  282,355;  244,600;  264,450
281,951;  284,755;  254,600;  256,450
282,040;  314,355;  289,600;  320,450
282,128;  298,355;  289,600;  290,450
282,217;  269,655;  255,600;  246,450
282,305;  299,655;  291,600;  280,450
282,393;  298,155;  332,600;  266,450
282,482;  292,755;  314,600;  268,450
282,570;  281,155;  274,600;  279,450
282,658;  285,555;  295,600;  277,450
282,747;  276,755;  257,600;  278,450
282,835;  319,055;  319,600;  305,450
282,923;  271,955;  230,600;  262,450
283,012;  290,655;  268,600;  305,450
283,100;  269,855;  263,600;  230,450
283,188;  257,055;  244,600;  243,450
283,277;  288,855;  279,600;  282,450
283,365;  276,355;  252,600;  253,450
283,453;  265,755;  253,600;  228,450
283,542;  293,255;  293,600;  259,450
283,630;  281,655;  259,600;  271,450
283,718;  276,955;  271,600;  247,450
283,806;  245,755;  225,600;  226,450
283,894;  267,155;  276,600;  274,450
283,983;  285,455;  256,600;  279,450
284,071;  278,255;  307,600;  269,450
284,159;  301,355;  319,600;  305,450
284,247;  296,955;  296,600;  287,450
284,335;  292,055;  267,600;  263,450
284,424;  283,955;  287,600;  269,450
284,512;  286,555;  295,600;  248,450
284,600;  275,055;  261,600;  236,450
284,688;  307,455;  297,600;  325,450
284,776;  290,155;  259,600;  277,450
284,864;  306,055;  327,600;  300,450
284,952;  290,555;  291,600;  276,450
285,041;  295,855;  286,600;  304,450
285,129;  295,355;  304,600;  290,450
285,217;  308,055;  309,600;  280,450
285,305;  323,155;  297,600;  304,450
285,393;  273,755;  255,600;  268,450
285,481;  293,455;  292,600;  274,450
285,569;  274,755;  297,600;  281,450
285,657;  296,655;  272,600;  276,450
285,745;  289,555;  334,600;  282,450
285,833;  299,355;  277,600;  294,450
285,921;  307,555;  301,600;  299,450
286,009;  304,355;  308,600;  308,450
286,097;  293,255;  313,600;  288,450
286,185;  284,955;  294,600;  259,450
286,273;  278,055;  302,600;  257,450
286,361;  317,455;  322,600;  287,450
286,449;  293,855;  305,600;  260,450
286,537;  305,055;  300,600;  248,450
286,625;  286,355;  300,600;  275,450
286,713;  274,455;  262,600;  270,450
286,801;  301,455;  320,600;  307,450
286,889;  321,555;  304,600;  282,450
286,976;  291,155;  271,600;  266,450
287,064;  315,755;  297,600;  309,450
287,152;  295,755;  332,600;  299,450
287,240;  308,355;  297,600;  327,450
287,328;  286,655;  249,600;  245,450
287,416;  293,055;  295,600;  277,450
287,504;  297,055;  302,600;  274,450
287,591;  295,955;  317,600;  307,450
287,679;  295,955;  272,600;  275,450
287,767;  297,855;  270,600;  292,450
287,855;  310,155;  271,600;  284,450
287,943;  308,455;  312,600;  269,450
288,030;  285,155;  246,600;  293,450
288,118;  318,855;  325,600;  295,450
288,206;  283,355;  264,600;  290,450
288,294;  304,655;  273,600;  292,450
288,382;  298,355;  301,600;  288,450
288,469;  301,055;  324,600;  274,450
288,557;  295,355;  276,600;  275,450
288,645;  323,655;  321,600;  281,450
288,732;  275,455;  274,600;  276,450
288,820;  312,855;  334,600;  270,450
288,908;  297,755;  295,600;  295,450
288,995;  309,755;  295,600;  277,450
289,083;  288,655;  278,600;  278,450
289,171;  325,255;  328,600;  310,450
289,258;  376,555;  402,600;  311,450
289,346;  427,155;  433,600;  329,450
289,434;  310,155;  345,600;  318,450
289,521;  281,755;  298,600;  281,450
289,609;  327,355;  317,600;  309,450
289,697;  306,855;  310,600;  321,450
289,784;  300,455;  300,600;  284,450
289,872;  315,955;  314,600;  313,450
289,959;  289,555;  274,600;  262,450
290,047;  301,155;  268,600;  272,450
290,134;  271,955;  286,600;  264,450
290,222;  308,955;  317,600;  294,450
290,310;  306,755;  310,600;  280,450
290,397;  333,555;  302,600;  319,450
290,485;  292,355;  291,600;  284,450
290,572;  309,755;  286,600;  318,450
290,660;  304,655;  300,600;  293,450
290,747;  289,555;  292,600;  290,450
290,835;  302,755;  296,600;  321,450
290,922;  309,955;  307,600;  294,450
291,009;  285,855;  310,600;  283,450
291,097;  295,355;  305,600;  282,450
291,184;  337,655;  319,600;  313,450
291,272;  290,355;  297,600;  264,450
291,359;  284,355;  283,600;  283,450
291,447;  309,855;  294,600;  309,450
291,534;  327,855;  310,600;  315,450
291,621;  303,755;  261,600;  308,450
291,709;  281,155;  284,600;  270,450
291,796;  317,655;  313,600;  323,450
291,884;  291,155;  310,600;  308,450
291,971;  317,155;  306,600;  287,450
292,058;  288,255;  250,600;  294,450
292,146;  294,255;  293,600;  279,450
292,233;  282,855;  284,600;  243,450
292,320;  285,655;  294,600;  284,450
292,408;  310,055;  316,600;  297,450
292,495;  305,855;  302,600;  281,450
292,582;  287,155;  276,600;  273,450
292,669;  277,655;  273,600;  285,450
292,757;  289,655;  292,600;  288,450
292,844;  310,755;  305,600;  312,450
292,931;  280,155;  272,600;  266,450
293,018;  300,455;  267,600;  264,450
293,106;  300,955;  290,600;  324,450
293,193;  275,355;  265,600;  280,450
293,280;  300,055;  304,600;  310,450
293,367;  284,455;  279,600;  295,450
293,455;  289,755;  253,600;  248,450
293,542;  277,255;  264,600;  268,450
293,629;  283,755;  264,600;  272,450
293,716;  307,855;  341,600;  307,450
293,803;  279,055;  273,600;  279,450
293,890;  305,455;  284,600;  298,450
293,978;  286,055;  277,600;  266,450
294,065;  282,355;  293,600;  268,450
294,152;  304,755;  276,600;  315,450
294,239;  273,855;  294,600;  269,450
294,326;  284,855;  307,600;  277,450
294,413;  280,055;  280,600;  253,450
294,500;  289,155;  304,600;  286,450
294,587;  285,655;  291,600;  255,450
294,674;  313,655;  280,600;  314,450
294,761;  280,655;  283,600;  266,450
294,848;  294,755;  275,600;  288,450
294,935;  291,055;  281,600;  279,450
295,022;  267,255;  269,600;  243,450
295,109;  254,855;  259,600;  253,450
295,196;  290,855;  297,600;  309,450
295,283;  276,755;  295,600;  256,450
295,370;  303,855;  318,600;  307,450
295,457;  290,055;  266,600;  285,450
295,544;  287,155;  277,600;  264,450
295,631;  296,355;  282,600;  272,450
295,718;  276,055;  279,600;  248,450
295,805;  294,555;  298,600;  281,450
295,892;  305,855;  314,600;  274,450
295,979;  296,155;  294,600;  284,450
296,066;  308,755;  306,600;  278,450
296,153;  300,855;  313,600;  324,450
296,240;  310,955;  312,600;  282,450
296,327;  293,755;  286,600;  257,450
296,413;  317,955;  316,600;  272,450
296,500;  339,455;  330,600;  261,450
296,587;  552,255;  534,600;  268,450
296,674; 1710,955; 1749,600;  263,450
296,761;  763,355;  786,600;  252,450
296,848;  301,455;  299,600;  274,450
296,934;  287,455;  296,600;  274,450
297,021;  290,155;  286,600;  266,450
297,108;  276,455;  310,600;  269,450
297,195;  287,155;  276,600;  268,450
297,282;  280,455;  295,600;  273,450
297,368;  308,055;  297,600;  347,450
297,455;  277,455;  284,600;  259,450
297,542;  309,355;  330,600;  316,450
297,629;  290,255;  315,600;  290,450
297,715;  302,855;  309,600;  306,450
297,802;  302,755;  286,600;  273,450
297,889;  318,755;  307,600;  319,450
297,975;  321,055;  326,600;  320,450
298,062;  319,455;  325,600;  301,450
298,149;  265,455;  300,600;  269,450
298,235;  301,055;  286,600;  308,450
298,322;  297,555;  287,600;  291,450
298,409;  310,155;  340,600;  304,450
298,495;  288,755;  282,600;  250,450
298,582;  308,255;  303,600;  304,450
298,669;  291,155;  290,600;  290,450
298,755;  291,655;  295,600;  281,450
298,842;  301,355;  315,600;  314,450
298,928;  299,255;  298,600;  281,450
299,015;  294,255;  287,600;  296,450
299,102;  325,155;  306,600;  309,450
299,188;  317,155;  307,600;  292,450
299,275;  305,655;  313,600;  289,450
299,361;  280,755;  274,600;  256,450
299,448;  301,155;  283,600;  278,450
299,534;  313,055;  328,600;  282,450
299,621;  302,455;  323,600;  302,450
299,707;  302,855;  298,600;  298,450
299,794;  316,155;  318,600;  322,450
299,880;  314,255;  301,600;  313,450
299,967;  295,155;  285,600;  251,450
300,053;  287,355;  301,600;  301,450
300,140;  322,455;  314,600;  315,450
300,226;  292,955;  320,600;  297,450
300,312;  299,755;  310,600;  306,450
300,399;  308,355;  290,600;  309,450
300,485;  283,955;  310,600;  268,450
300,572;  277,855;  272,600;  257,450
300,658;  291,355;  299,600;  272,450
300,744;  308,355;  310,600;  301,450
300,831;  315,755;  302,600;  292,450
300,917;  317,455;  298,600;  310,450
301,004;  299,455;  299,600;  288,450
301,090;  274,155;  279,600;  254,450
301,176;  278,855;  284,600;  254,450
301,263;  313,455;  322,600;  282,450
301,349;  285,655;  294,600;  273,450
301,435;  283,855;  267,600;  268,450
301,521;  305,555;  323,600;  301,450
301,608;  305,755;  311,600;  319,450
301,694;  302,755;  304,600;  283,450
301,780;  302,855;  296,600;  288,450
301,867;  281,155;  281,600;  274,450
301,953;  294,255;  289,600;  304,450
302,039;  399,655;  409,600;  273,450
302,125;  535,655;  539,600;  281,450
302,211;  353,655;  349,600;  300,450
302,298;  350,755;  374,600;  261,450
302,384;  300,655;  296,600;  238,450
302,470;  289,755;  280,600;  280,450
302,556;  302,455;  331,600;  294,450
302,642;  291,255;  286,600;  226,450
302,729;  295,555;  300,600;  270,450
302,815;  314,955;  299,600;  269,450
302,901;  292,155;  267,600;  294,450
302,987;  311,255;  299,600;  293,450
303,073;  297,855;  284,600;  283,450
303,159;  298,655;  295,600;  305,450
303,245;  279,155;  279,600;  256,450
303,331;  280,455;  281,600;  277,450
303,417;  294,355;  283,600;  328,450
303,503;  308,955;  331,600;  293,450
303,590;  287,355;  289,600;  272,450
303,676;  294,155;  289,600;  302,450
303,762;  278,855;  288,600;  270,450
303,848;  301,955;  295,600;  316,450
303,934;  304,655;  323,600;  286,450
304,020;  299,555;  304,600;  288,450
304,106;  299,455;  318,600;  287,450
304,192;  296,155;  265,600;  275,450
304,278;  302,455;  297,600;  304,450
304,364;  322,755;  327,600;  303,450
304,450;  296,555;  283,600;  288,450
304,535;  300,455;  304,600;  295,450
304,621;  294,655;  302,600;  309,450
304,707;  311,755;  294,600;  296,450
304,793;  319,155;  323,600;  295,450
304,879;  303,155;  305,600;  292,450
304,965;  313,355;  297,600;  273,450
305,051;  311,355;  310,600;  260,450
305,137;  324,355;  266,600;  314,450
305,223;  288,655;  299,600;  301,450
305,309;  312,955;  306,600;  306,450
305,394;  308,655;  266,600;  282,450
305,480;  293,955;  298,600;  266,450
305,566;  302,655;  280,600;  297,450
305,652;  311,755;  297,600;  308,450
305,738;  347,655;  332,600;  315,450
305,824;  310,355;  280,600;  303,450
305,909;  325,955;  338,600;  301,450
305,995;  288,955;  267,600;  268,450
306,081;  339,755;  368,600;  334,450
306,167;  312,355;  287,600;  311,450
306,252;  322,955;  319,600;  311,450
306,338;  331,855;  332,600;  332,450
306,424;  307,455;  315,600;  260,450
306,510;  319,755;  355,600;  305,450
306,595;  315,055;  303,600;  335,450
306,681;  315,155;  321,600;  287,450
306,767;  304,155;  313,600;  286,450
306,852;  330,855;  337,600;  314,450
306,938;  327,255;  291,600;  336,450
307,024;  308,455;  281,600;  321,450
307,109;  332,355;  340,600;  327,450
307,195;  314,655;  318,600;  337,450
307,281;  314,955;  322,600;  315,450
307,366;  319,555;  319,600;  284,450
307,452;  320,555;  292,600;  312,450
307,537;  292,355;  289,600;  281,450
307,623;  286,155;  272,600;  282,450
307,709;  302,755;  302,600;  325,450
307,794;  287,455;  293,600;  258,450
307,880;  320,555;  321,600;  320,450
307,965;  313,255;  278,600;  274,450
308,051;  294,455;  263,600;  305,450
308,136;  306,855;  314,600;  260,450
308,222;  296,155;  306,600;  301,450
308,307;  293,155;  286,600;  312,450
308,393;  289,455;  294,600;  285,450
308,478;  311,055;  321,600;  308,450
308,564;  289,155;  280,600;  276,450
308,649;  308,855;  308,600;  304,450
308,735;  295,655;  320,600;  278,450
308,820;  304,955;  328,600;  304,450
308,906;  294,755;  298,600;  272,450
308,991;  338,755;  339,600;  314,450
309,076;  316,855;  335,600;  290,450
309,162;  280,555;  265,600;  245,450
309,247;  304,455;  297,600;  288,450
309,333;  296,955;  284,600;  286,450
309,418;  287,655;  281,600;  297,450
309,503;  294,655;  301,600;  289,450
309,589;  302,055;  308,600;  306,450
309,674;  278,555;  274,600;  268,450
309,759;  303,055;  291,600;  289,450
309,845;  309,155;  290,600;  312,450
309,930;  302,455;  292,600;  288,450
310,015;  268,955;  257,600;  251,450
310,101;  312,355;  282,600;  296,450
310,186;  274,955;  267,600;  298,450
310,271;  292,255;  298,600;  286,450
310,357;  305,355;  265,600;  286,450
310,442;  303,655;  288,600;  263,450
310,527;  302,655;  288,600;  306,450
310,612;  282,255;  291,600;  253,450
310,698;  319,655;  282,600;  275,450
310,783;  305,555;  288,600;  279,450
310,868;  297,955;  313,600;  263,450
310,953;  284,155;  269,600;  293,450
311,038;  310,255;  289,600;  286,450
311,124;  284,555;  296,600;  277,450
311,209;  283,155;  293,600;  291,450
311,294;  313,755;  306,600;  303,450
311,379;  275,055;  254,600;  258,450
311,464;  305,355;  302,600;  291,450
311,549;  278,955;  277,600;  294,450
311,634;  289,655;  284,600;  275,450
311,719;  317,355;  308,600;  309,450
311,805;  291,355;  308,600;  275,450
311,890;  301,755;  308,600;  261,450
311,975;  301,455;  262,600;  283,450
312,060;  316,155;  321,600;  289,450
312,145;  287,955;  277,600;  262,450
312,230;  313,055;  313,600;  285,450
312,315;  320,155;  325,600;  262,450
312,400;  410,855;  404,600;  303,450
312,485; 1702,755; 1668,600;  292,450
312,570; 1199,455; 1232,600;  239,450
312,655;  346,555;  342,600;  282,450
312,740;  322,555;  312,600;  289,450
312,825;  322,555;  329,600;  301,450
312,910;  353,155;  343,600;  278,450
312,995;  448,655;  443,600;  325,450
313,080; 2120,455; 2082,600;  265,450
313,165; 2165,955; 2149,600;  310,450
313,250;  360,755;  308,600;  276,450
313,335;  313,855;  321,600;  307,450
313,419;  277,055;  269,600;  242,450
313,504;  323,855;  304,600;  286,450
313,589;  300,055;  272,600;  277,450
313,674;  310,655;  303,600;  290,450
313,759;  285,355;  274,600;  273,450
313,844;  297,355;  276,600;  289,450
313,929;  291,055;  295,600;  285,450
314,014;  319,255;  307,600;  320,450
314,098;  290,855;  321,600;  305,450
314,183;  261,255;  258,600;  260,450
314,268;  293,555;  295,600;  290,450
314,353;  298,955;  287,600;  290,450
314,438;  314,555;  287,600;  294,450
314,522;  317,755;  272,600;  306,450
314,607;  303,255;  282,600;  302,450
314,692;  294,555;  291,600;  301,450
314,777;  293,255;  291,600;  279,450
314,861;  278,955;  293,600;  263,450
314,946;  304,955;  321,600;  303,450
315,031;  300,455;  284,600;  267,450
315,115;  311,755;  309,600;  318,450
315,200;  311,455;  301,600;  285,450
315,285;  293,155;  278,600;  275,450
315,369;  294,155;  282,600;  273,450
315,454;  310,455;  291,600;  305,450
315,539;  307,855;  280,600;  283,450
315,623;  300,955;  308,600;  292,450
315,708;  325,355;  326,600;  315,450
315,793;  288,855;  318,600;  308,450
315,877;  298,355;  311,600;  282,450
315,962;  281,555;  263,600;  283,450
316,046;  318,655;  327,600;  298,450
316,131;  342,755;  334,600;  313,450
316,216;  312,555;  308,600;  288,450
316,300;  297,555;  307,600;  281,450
316,385;  315,455;  301,600;  319,450
316,469;  332,155;  335,600;  331,450
316,554;  294,855;  290,600;  288,450
316,638;  291,955;  297,600;  286,450
316,723;  297,355;  285,600;  262,450
316,807;  299,255;  268,600;  273,450
316,892;  285,655;  293,600;  275,450
316,976;  314,855;  298,600;  318,450
317,061;  314,355;  282,600;  309,450
317,145;  325,755;  316,600;  315,450
317,230;  309,455;  309,600;  304,450
317,314;  266,855;  264,600;  259,450
317,398;  303,555;  280,600;  323,450
317,483;  281,455;  312,600;  266,450
317,567;  307,755;  299,600;  317,450
317,652;  279,055;  280,600;  244,450
317,736;  305,655;  277,600;  329,450
317,820;  325,055;  343,600;  287,450
317,905;  302,255;  311,600;  289,450
317,989;  294,055;  303,600;  312,450
318,073;  297,855;  281,600;  280,450
318,158;  282,155;  262,600;  284,450
318,242;  285,955;  297,600;  269,450
318,326;  288,855;  265,600;  260,450
318,411;  282,955;  263,600;  290,450
318,495;  289,355;  274,600;  286,450
318,579;  286,255;  264,600;  266,450
318,664;  269,855;  284,600;  242,450
318,748;  309,755;  290,600;  266,450
318,832;  283,755;  261,600;  263,450
318,916;  269,755;  272,600;  263,450
319,001;  292,555;  287,600;  299,450
319,085;  295,455;  265,600;  265,450
319,169;  294,155;  304,600;  285,450
319,253;  285,855;  270,600;  271,450
319,337;  302,855;  311,600;  265,450
319,422;  313,755;  329,600;  325,450
319,506;  276,555;  282,600;  264,450
319,590;  299,855;  303,600;  320,450
319,674;  293,755;  326,600;  301,450
319,758;  301,255;  277,600;  278,450
319,842;  304,255;  280,600;  290,450
319,926;  292,255;  268,600;  280,450
320,010;  270,555;  267,600;  226,450
320,095;  278,955;  284,600;  274,450
320,179;  281,455;  270,600;  263,450
320,263;  275,455;  259,600;  265,450
320,347;  276,855;  217,600;  260,450
320,431;  274,455;  267,600;  245,450
320,515;  298,955;  297,600;  267,450
320,599;  267,655;  274,600;  263,450
320,683;  300,755;  295,600;  306,450
320,767;  257,955;  246,600;  230,450
320,851;  282,855;  247,600;  282,450
320,935;  316,955;  294,600;  317,450
321,019;  297,055;  258,600;  297,450
321,103;  270,355;  319,600;  295,450
321,187;  266,855;  272,600;  303,450
321,271;  292,255;  299,600;  251,450
321,355;  289,555;  290,600;  264,450
321,439;  303,655;  282,600;  306,450
321,523;  278,055;  285,600;  287,450
321,606;  286,755;  289,600;  301,450
321,690;  284,255;  285,600;  261,450
321,774;  297,355;  284,600;  286,450
321,858;  286,355;  300,600;  283,450
321,942;  293,555;  298,600;  291,450
322,026;  285,855;  296,600;  280,450
322,110;  296,555;  286,600;  264,450
322,194;  298,755;  279,600;  293,450
322,277;  284,255;  287,600;  257,450
322,361;  277,755;  260,600;  265,450
322,445;  290,255;  285,600;  252,450
322,529;  287,155;  298,600;  264,450
322,613;  298,855;  273,600;  262,450
322,696;  264,455;  287,600;  266,450
322,780;  276,655;  303,600;  256,450
322,864;  265,555;  310,600;  288,450
322,948;  293,555;  262,600;  270,450
323,031;  265,955;  268,600;  269,450
323,115;  281,255;  299,600;  257,450
323,199;  296,455;  291,600;  268,450
323,282;  305,055;  284,600;  302,450
323,366;  281,855;  280,600;  307,450
323,450;  273,055;  241,600;  266,450
323,533;  308,655;  309,600;  308,450
323,617;  260,955;  243,600;  238,450
323,701;  275,855;  239,600;  257,450
323,784;  297,755;  305,600;  289,450
323,868;  302,755;  302,600;  285,450
323,952;  298,655;  276,600;  272,450
324,035;  306,055;  295,600;  297,450
324,119;  295,455;  285,600;  262,450
324,202;  287,055;  280,600;  298,450
324,286;  288,155;  236,600;  286,450
324,370;  295,755;  291,600;  274,450
324,453;  297,755;  287,600;  296,450
324,537;  293,655;  280,600;  281,450
324,620;  279,555;  295,600;  303,450
324,704;  265,555;  281,600;  261,450
324,787;  295,755;  295,600;  267,450
324,871;  310,755;  293,600;  314,450
324,954;  312,955;  299,600;  318,450
325,038;  313,355;  299,600;  301,450
325,121;  303,155;  302,600;  316,450
325,205;  285,255;  273,600;  277,450
325,288;  283,255;  280,600;  269,450
325,371;  290,455;  275,600;  285,450
325,455;  309,755;  289,600;  302,450
325,538;  279,255;  292,600;  308,450
325,622;  327,555;  302,600;  306,450
325,705;  297,655;  303,600;  300,450
325,788;  307,655;  297,600;  298,450
325,872;  289,755;  264,600;  279,450
325,955;  321,155;  305,600;  300,450
326,039;  306,055;  290,600;  313,450
326,122;  310,355;  277,600;  288,450
326,205;  306,155;  320,600;  299,450
326,289;  320,155;  313,600;  313,450
326,372;  287,555;  310,600;  288,450
326,455;  319,655;  322,600;  318,450
326,538;  316,855;  312,600;  306,450
326,622;  312,155;  285,600;  313,450
326,705;  293,255;  272,600;  290,450
326,788;  319,855;  288,600;  324,450
326,871;  319,855;  286,600;  281,450
326,955;  309,455;  293,600;  333,450
327,038;  299,555;  304,600;  284,450
327,121;  300,355;  313,600;  303,450
327,204;  315,955;  315,600;  298,450
327,288;  324,555;  326,600;  328,450
327,371;  304,655;  286,600;  294,450
327,454;  310,755;  303,600;  316,450
327,537;  298,555;  272,600;  285,450
327,620;  329,455;  327,600;  309,450
327,703;  307,455;  308,600;  314,450
327,786;  303,555;  320,600;  319,450
327,870;  321,255;  321,600;  308,450
327,953;  300,655;  307,600;  296,450
328,036;  300,455;  291,600;  264,450
328,119;  322,555;  345,600;  299,450
328,202;  304,055;  305,600;  287,450
328,285;  321,555;  336,600;  306,450
328,368;  315,755;  335,600;  328,450
328,451;  328,055;  325,600;  334,450
328,534;  299,055;  292,600;  283,450
328,617;  304,655;  290,600;  281,450
328,700;  321,955;  325,600;  327,450
328,783;  336,255;  319,600;  292,450
328,866;  316,755;  294,600;  287,450
328,949;  319,955;  341,600;  325,450
329,032;  289,555;  292,600;  308,450
329,115;  292,255;  288,600;  279,450
329,198;  280,355;  265,600;  282,450
329,281;  299,655;  310,600;  277,450
329,364;  312,055;  300,600;  330,450
329,447;  311,855;  303,600;  300,450
329,530;  324,155;  321,600;  317,450
329,613;  304,255;  302,600;  289,450
329,696;  322,655;  308,600;  298,450
329,778;  322,055;  313,600;  293,450
329,861;  297,755;  309,600;  288,450
329,944;  324,955;  326,600;  272,450
330,027;  307,055;  312,600;  296,450
330,110;  307,155;  305,600;  313,450
330,193;  296,055;  284,600;  300,450
330,275;  309,655;  290,600;  298,450
330,358;  299,555;  278,600;  298,450
330,441;  326,955;  307,600;  326,450
330,524;  313,555;  322,600;  298,450
330,607;  309,055;  281,600;  304,450
330,689;  317,755;  278,600;  321,450
330,772;  311,455;  290,600;  305,450
330,855;  314,355;  329,600;  287,450
330,938;  321,955;  332,600;  319,450
331,020;  317,455;  298,600;  292,450
331,103;  290,355;  280,600;  310,450
331,186;  297,255;  298,600;  286,450
331,268;  295,555;  280,600;  269,450
331,351;  303,755;  285,600;  311,450
331,434;  317,055;  296,600;  316,450
331,516;  318,855;  313,600;  329,450
331,599;  295,355;  266,600;  255,450
331,682;  312,755;  301,600;  302,450
331,764;  301,955;  308,600;  261,450
331,847;  313,055;  311,600;  310,450
331,929;  288,655;  286,600;  278,450
332,012;  308,755;  296,600;  295,450
332,095;  321,855;  348,600;  317,450
332,177;  316,455;  353,600;  324,450
332,260;  324,355;  349,600;  345,450
332,342;  304,555;  310,600;  291,450
332,425;  323,555;  301,600;  293,450
332,507;  309,055;  239,600;  316,450
332,590;  297,755;  274,600;  280,450
332,672;  295,955;  310,600;  264,450
332,755;  323,055;  320,600;  233,450
332,837;  298,655;  286,600;  274,450
332,920;  317,855;  315,600;  298,450
333,002;  328,155;  308,600;  306,450
333,085;  303,755;  308,600;  298,450
333,167;  295,655;  275,600;  266,450
333,249;  303,055;  276,600;  277,450
333,332;  287,955;  275,600;  279,450
333,414;  297,255;  317,600;  295,450
333,497;  298,155;  315,600;  305,450
333,579;  289,955;  303,600;  307,450
333,661;  308,355;  319,600;  286,450
333,744;  292,755;  265,600;  243,450
333,826;  305,855;  302,600;  293,450
333,908;  316,655;  329,600;  332,450
333,991;  304,855;  253,600;  285,450
334,073;  471,055;  503,600;  321,450
334,155;  348,355;  360,600;  289,450
334,238;  316,955;  314,600;  286,450
334,320;  292,355;  296,600;  270,450
334,402;  301,655;  298,600;  292,450
334,485;  289,055;  305,600;  282,450
334,567;  293,455;  301,600;  262,450
334,649;  270,955;  266,600;  273,450
334,731;  312,955;  287,600;  285,450
334,813;  294,155;  346,600;  352,450
334,896;  282,755;  296,600;  287,450
334,978;  301,655;  302,600;  283,450
335,060;  302,555;  306,600;  296,450
335,142;  296,255;  265,600;  306,450
335,224;  310,055;  308,600;  310,450
335,307;  298,355;  277,600;  275,450
335,389;  309,855;  302,600;  315,450
335,471;  299,155;  300,600;  282,450
335,553;  324,055;  308,600;  317,450
335,635;  310,955;  303,600;  277,450
335,717;  303,155;  280,600;  305,450
335,799;  310,355;  314,600;  325,450
335,881;  282,055;  271,600;  251,450
335,963;  289,755;  283,600;  278,450
336,045;  292,555;  281,600;  276,450
336,128;  268,155;  281,600;  268,450
336,210;  289,955;  284,600;  250,450
336,292;  299,155;  301,600;  283,450
336,374;  303,355;  307,600;  287,450
336,456;  280,555;  290,600;  258,450
336,538;  306,755;  288,600;  304,450
336,620;  311,155;  325,600;  305,450
336,702;  287,855;  308,600;  309,450
336,783;  303,555;  299,600;  289,450
336,865;  302,255;  302,600;  303,450
336,947;  311,355;  299,600;  302,450
337,029;  275,855;  252,600;  262,450
337,111;  317,455;  309,600;  328,450
337,193;  285,455;  257,600;  250,450
337,275;  310,155;  302,600;  291,450
337,357;  306,755;  299,600;  305,450
337,439;  302,555;  299,600;  277,450
337,521;  277,855;  274,600;  268,450
337,602;  297,755;  280,600;  295,450
337,684;  313,755;  302,600;  341,450
337,766;  311,255;  301,600;  288,450
337,848;  294,455;  309,600;  318,450
337,930;  302,555;  300,600;  300,450
338,012;  304,855;  257,600;  295,450
338,093;  320,055;  302,600;  312,450
338,175;  326,855;  308,600;  308,450
338,257;  311,655;  296,600;  243,450
338,339;  291,455;  303,600;  248,450
338,420;  309,055;  304,600;  329,450
338,502;  294,355;  292,600;  292,450
338,584;  288,255;  261,600;  270,450
338,666;  299,555;  293,600;  301,450
338,747;  332,755;  337,600;  324,450
338,829;  317,155;  301,600;  300,450
338,911;  291,455;  281,600;  284,450
338,992;  295,555;  292,600;  299,450
339,074;  309,755;  300,600;  274,450
339,156;  296,355;  308,600;  302,450
339,237;  321,355;  344,600;  320,450
339,319;  280,355;  298,600;  284,450
339,400;  305,655;  301,600;  313,450
339,482;  267,855;  291,600;  259,450
339,564;  311,655;  337,600;  315,450
339,645;  299,155;  283,600;  306,450
339,727;  290,855;  284,600;  278,450
339,808;  315,655;  306,600;  320,450
339,890;  291,255;  285,600;  277,450
339,971;  314,955;  318,600;  299,450
340,053;  332,455;  327,600;  339,450
340,134;  299,055;  287,600;  283,450
340,216;  307,055;  294,600;  302,450
340,297;  294,755;  330,600;  312,450
340,379;  314,855;  344,600;  301,450
340,460;  307,955;  275,600;  299,450
340,542;  298,055;  307,600;  263,450
340,623;  313,955;  306,600;  325,450
340,705;  290,755;  306,600;  262,450
340,786;  285,455;  299,600;  288,450
340,868;  302,455;  299,600;  313,450
340,949;  284,955;  279,600;  269,450
341,030;  319,255;  330,600;  312,450
341,112;  274,055;  256,600;  269,450
341,193;  263,755;  287,600;  248,450
341,274;  313,955;  325,600;  312,450
341,356;  317,155;  329,600;  300,450
341,437;  294,155;  292,600;  284,450
341,518;  310,255;  313,600;  322,450
341,600;  317,255;  321,600;  324,450
341,681;  338,555;  316,600;  308,450
341,762;  318,155;  316,600;  314,450
341,844;  283,455;  271,600;  280,450
341,925;  308,055;  304,600;  329,450
342,006;  316,555;  314,600;  322,450
342,087;  283,555;  291,600;  308,450
342,169;  310,855;  301,600;  297,450
342,250;  288,155;  303,600;  250,450
342,331;  289,555;  291,600;  268,450
342,412;  310,755;  304,600;  283,450
342,493;  282,455;  279,600;  266,450
342,575;  331,055;  298,600;  308,450
342,656;  319,755;  343,600;  319,450
342,737;  327,455;  331,600;  316,450
342,818;  305,455;  319,600;  291,450
342,899;  312,655;  309,600;  295,450
342,980;  303,855;  306,600;  302,450
343,061;  293,955;  297,600;  279,450
343,143;  315,555;  299,600;  310,450
343,224;  308,455;  297,600;  287,450
343,305;  303,955;  294,600;  273,450
343,386;  303,355;  290,600;  295,450
343,467;  302,455;  306,600;  295,450
343,548;  292,955;  307,600;  271,450
343,629;  313,655;  348,600;  311,450
343,710;  321,355;  354,600;  330,450
343,791;  318,455;  296,600;  295,450
343,872;  299,355;  314,600;  271,450
343,953;  322,455;  323,600;  303,450
344,034;  319,255;  307,600;  307,450
344,115;  303,055;  298,600;  295,450
344,196;  289,155;  295,600;  273,450
344,277;  281,555;  282,600;  299,450
344,358;  306,555;  279,600;  295,450
344,439;  296,255;  281,600;  287,450
344,520;  289,455;  310,600;  269,450
344,601;  299,655;  319,600;  332,450
344,681;  306,955;  312,600;  315,450
344,762;  280,455;  275,600;  257,450
344,843;  272,155;  300,600;  255,450
344,924;  298,555;  252,600;  290,450
345,005;  288,655;  269,600;  286,450
345,086;  304,855;  301,600;  289,450
345,167;  287,055;  299,600;  282,450
345,247;  325,055;  305,600;  327,450
345,328;  309,255;  287,600;  317,450
345,409;  300,955;  280,600;  307,450
345,490;  307,955;  314,600;  310,450
345,571;  306,955;  293,600;  295,450
345,651;  279,355;  260,600;  335,450
345,732;  299,755;  303,600;  286,450
345,813;  312,455;  285,600;  291,450
345,894;  284,955;  254,600;  279,450
345,974;  320,555;  346,600;  305,450
346,055;  289,755;  275,600;  291,450
346,136;  304,155;  311,600;  287,450
346,216;  330,355;  312,600;  345,450
346,297;  302,755;  294,600;  289,450
346,378;  297,955;  270,600;  300,450
346,458;  310,955;  299,600;  271,450
346,539;  303,055;  295,600;  315,450
346,620;  306,955;  301,600;  312,450
346,700;  276,855;  302,600;  258,450
346,781;  288,055;  252,600;  260,450
346,861;  308,155;  283,600;  301,450
346,942;  303,355;  273,600;  319,450
347,023;  320,255;  302,600;  306,450
347,103;  298,655;  296,600;  287,450
347,184;  302,555;  321,600;  294,450
347,264;  291,555;  289,600;  310,450
347,345;  289,955;  280,600;  281,450
347,425;  279,255;  270,600;  295,450
347,506;  281,055;  283,600;  283,450
347,586;  295,555;  258,600;  283,450
347,667;  304,855;  316,600;  299,450
347,747;  300,255;  307,600;  304,450
347,828;  295,955;  308,600;  271,450
347,908;  305,655;  307,600;  307,450
347,988;  298,455;  296,600;  251,450
348,069;  304,255;  295,600;  305,450
348,149;  306,455;  303,600;  276,450
348,230;  310,855;  297,600;  301,450
348,310;  280,355;  291,600;  301,450
348,390;  288,055;  285,600;  267,450
348,471;  301,555;  299,600;  270,450
348,551;  282,455;  289,600;  264,450
348,632;  289,055;  288,600;  278,450
348,712;  287,755;  281,600;  278,450
348,792;  323,455;  352,600;  333,450
348,873;  284,155;  293,600;  249,450
348,953;  289,655;  278,600;  330,450
349,033;  304,955;  285,600;  311,450
349,113;  290,155;  278,600;  277,450
349,194;  306,955;  289,600;  310,450
349,274;  301,955;  300,600;  310,450
349,354;  299,055;  288,600;  285,450
349,434;  292,855;  300,600;  299,450
349,515;  315,255;  310,600;  320,450
349,595;  301,255;  308,600;  287,450
349,675;  318,655;  289,600;  299,450
349,755;  302,455;  325,600;  280,450
349,835;  297,955;  305,600;  309,450
349,916;  291,055;  298,600;  284,450
349,996;  292,055;  287,600;  253,450
350,076;  306,755;  286,600;  315,450
350,156;  282,855;  272,600;  280,450
350,236;  308,955;  292,600;  316,450
350,316;  290,955;  296,600;  282,450
350,396;  318,255;  283,600;  306,450
350,476;  290,455;  308,600;  275,450
350,556;  298,055;  275,600;  290,450
350,637;  319,755;  331,600;  312,450
350,717;  285,155;  269,600;  287,450
350,797;  303,755;  307,600;  305,450
350,877;  283,655;  305,600;  323,450
350,957;  281,955;  285,600;  291,450
351,037;  298,655;  303,600;  298,450
351,117;  303,555;  304,600;  275,450
351,197;  303,955;  331,600;  302,450
351,277;  296,755;  328,600;  277,450
351,357;  308,655;  322,600;  293,450
351,437;  299,655;  299,600;  283,450
351,516;  309,655;  337,600;  283,450
351,596;  295,555;  291,600;  329,450
351,676;  291,455;  269,600;  284,450
351,756;  323,455;  308,600;  326,450
351,836;  311,855;  285,600;  329,450
351,916;  286,855;  324,600;  287,450
351,996;  305,755;  313,600;  318,450
352,076;  295,255;  288,600;  302,450
352,156;  315,255;  317,600;  297,450
352,235;  294,355;  310,600;  304,450
352,315;  298,155;  313,600;  339,450
352,395;  303,955;  306,600;  277,450
352,475;  314,955;  339,600;  287,450
352,555;  335,555;  362,600;  344,450
352,634;  329,155;  304,600;  344,450
352,714;  304,255;  310,600;  263,450
352,794;  346,355;  334,600;  364,450
352,874;  311,955;  335,600;  339,450
352,953;  348,055;  336,600;  318,450
353,033;  328,355;  317,600;  344,450
353,113;  334,955;  360,600;  341,450
353,193;  322,755;  314,600;  334,450
353,272;  325,755;  295,600;  329,450
353,352;  304,755;  303,600;  275,450
353,432;  349,055;  324,600;  344,450
353,511;  323,655;  323,600;  302,450
353,591;  356,155;  352,600;  347,450
353,671;  325,055;  335,600;  320,450
353,750;  325,555;  311,600;  311,450
353,830;  319,255;  319,600;  296,450
353,909;  332,255;  335,600;  341,450
353,989;  317,455;  309,600;  297,450
354,069;  310,155;  315,600;  318,450
354,148;  346,155;  341,600;  323,450
354,228;  310,455;  315,600;  300,450
354,307;  328,855;  313,600;  312,450
354,387;  318,655;  316,600;  326,450
354,466;  313,555;  319,600;  299,450
354,546;  339,855;  314,600;  347,450
354,625;  314,455;  341,600;  324,450
354,705;  325,655;  272,600;  330,450
354,784;  323,255;  301,600;  303,450
354,864;  315,455;  309,600;  305,450
354,943;  327,755;  340,600;  339,450
355,023;  302,255;  288,600;  314,450
355,102;  364,655;  337,600;  333,450
355,181;  320,155;  328,600;  329,450
355,261;  331,955;  314,600;  344,450
355,340;  309,255;  301,600;  307,450
355,420;  343,855;  325,600;  327,450
355,499;  323,955;  294,600;  326,450
355,578;  319,555;  321,600;  324,450
355,658;  336,655;  310,600;  346,450
355,737;  329,155;  312,600;  309,450
355,816;  325,955;  330,600;  333,450
355,896;  315,555;  300,600;  301,450
355,975;  308,855;  308,600;  294,450
356,054;  314,155;  316,600;  285,450
356,133;  296,755;  287,600;  314,450
356,213;  325,155;  318,600;  292,450
356,292;  308,455;  297,600;  276,450
356,371;  312,255;  331,600;  297,450
356,451;  324,755;  345,600;  294,450
356,530;  350,855;  357,600;  319,450
356,609;  312,455;  306,600;  286,450
356,688;  324,155;  314,600;  298,450
356,767;  311,855;  299,600;  290,450
356,846;  331,655;  346,600;  295,450
356,926;  344,455;  342,600;  361,450
357,005;  314,355;  332,600;  321,450
357,084;  298,255;  318,600;  321,450
357,163;  327,155;  335,600;  341,450
357,242;  329,255;  286,600;  337,450
357,321;  311,355;  322,600;  296,450
357,400;  321,255;  305,600;  310,450
357,479;  323,855;  336,600;  292,450
357,559;  333,255;  325,600;  314,450
357,638;  299,755;  312,600;  292,450
357,717;  322,555;  322,600;  304,450
357,796;  330,655;  348,600;  323,450
357,875;  313,255;  333,600;  316,450
357,954;  315,155;  312,600;  285,450
358,033;  320,355;  311,600;  278,450
358,112;  327,555;  302,600;  300,450
358,191;  320,055;  313,600;  289,450
358,270;  294,255;  266,600;  300,450
358,349;  320,255;  291,600;  324,450
358,428;  317,655;  321,600;  335,450
358,507;  328,055;  348,600;  306,450
358,585;  327,455;  318,600;  326,450
358,664;  329,355;  318,600;  340,450
358,743;  332,955;  293,600;  304,450
358,822;  325,055;  354,600;  329,450
358,901;  308,355;  275,600;  303,450
358,980;  311,755;  308,600;  299,450
359,059;  315,155;  326,600;  326,450
359,138;  331,555;  308,600;  324,450
359,216;  322,655;  320,600;  314,450
359,295;  300,355;  325,600;  329,450
359,374;  331,555;  335,600;  301,450
359,453;  324,955;  340,600;  315,450
359,532;  307,255;  307,600;  310,450
359,610;  320,355;  315,600;  307,450
359,689;  323,655;  324,600;  330,450
359,768;  314,355;  305,600;  294,450
359,847;  303,555;  313,600;  287,450
359,925;  302,555;  303,600;  315,450
360,004;  297,955;  295,600;  289,450
360,083;  313,155;  299,600;  319,450
360,161;  306,455;  314,600;  285,450
360,240;  287,055;  272,600;  289,450
360,319;  304,055;  323,600;  309,450
360,397;  327,155;  313,600;  320,450
360,476;  310,155;  291,600;  325,450
360,555;  350,855;  334,600;  340,450
360,633;  301,455;  287,600;  300,450
360,712;  304,855;  299,600;  264,450
360,790;  327,955;  314,600;  320,450
360,869;  309,455;  297,600;  296,450
360,948;  315,555;  278,600;  334,450
361,026;  304,255;  321,600;  276,450
361,105;  308,855;  305,600;  290,450
361,183;  319,155;  294,600;  286,450
361,262;  307,955;  300,600;  280,450
361,340;  309,055;  318,600;  297,450
361,419;  283,755;  282,600;  250,450
361,497;  346,955;  300,600;  335,450
361,576;  316,855;  292,600;  315,450
361,654;  349,355;  361,600;  322,450
361,733;  290,655;  320,600;  300,450
361,811;  332,455;  320,600;  311,450
361,890;  294,755;  267,600;  289,450
361,968;  313,155;  269,600;  303,450
362,046;  338,755;  334,600;  321,450
362,125;  342,355;  353,600;  326,450
362,203;  323,555;  297,600;  287,450
362,282;  329,855;  319,600;  338,450
362,360;  312,155;  296,600;  307,450
362,438;  315,955;  310,600;  302,450
362,517;  355,155;  346,600;  347,450
362,595;  336,255;  312,600;  351,450
362,673;  338,755;  323,600;  317,450
362,752;  326,555;  349,600;  327,450
362,830;  343,055;  338,600;  349,450
362,908;  327,655;  310,600;  307,450
362,986;  337,155;  335,600;  315,450
363,065;  332,055;  313,600;  344,450
363,143;  357,255;  354,600;  367,450
363,221;  329,455;  302,600;  288,450
363,299;  315,055;  304,600;  309,450
363,378;  329,655;  297,600;  335,450
363,456;  304,955;  286,600;  316,450
363,534;  333,455;  318,600;  323,450
363,612;  338,055;  320,600;  312,450
363,690;  341,755;  319,600;  344,450
363,769;  360,755;  340,600;  345,450
363,847;  342,455;  308,600;  356,450
363,925;  310,055;  282,600;  303,450
364,003;  358,755;  343,600;  348,450
364,081;  342,455;  323,600;  338,450
364,159;  339,455;  325,600;  330,450
364,237;  343,355;  351,600;  326,450
364,315;  336,355;  306,600;  311,450
364,393;  363,455;  363,600;  340,450
364,471;  338,855;  345,600;  315,450
364,549;  347,255;  344,600;  337,450
364,627;  361,355;  339,600;  321,450
364,705;  367,855;  344,600;  299,450
364,783;  426,855;  417,600;  294,450
364,861; 1010,455; 1050,600;  311,450
364,939; 3613,355; 3619,600;  304,450
365,017;  791,055;  723,600;  298,450
365,095;  377,055;  341,600;  327,450
365,173;  379,955;  398,600;  335,450
365,251;  393,655;  356,600;  345,450
365,329;  530,055;  527,600;  344,450
365,407; 1185,855; 1155,600;  315,450
365,485;  466,755;  464,600;  377,450
365,563;  361,255;  354,600;  339,450
365,641;  332,155;  327,600;  316,450
365,719;  348,255;  361,600;  314,450
365,796;  343,855;  329,600;  309,450
365,874;  357,055;  329,600;  354,450
365,952;  319,255;  334,600;  297,450
366,030;  339,155;  311,600;  318,450
366,108;  373,055;  336,600;  325,450
366,185;  627,755;  644,600;  330,450
366,263;  896,555;  880,600;  333,450
366,341;  382,955;  362,600;  310,450
366,419;  344,655;  335,600;  319,450
366,496;  349,255;  347,600;  336,450
366,574;  334,155;  299,600;  321,450
366,652;  356,155;  381,600;  324,450
366,730;  372,455;  336,600;  375,450
366,807;  333,055;  317,600;  335,450
366,885;  325,655;  315,600;  340,450
366,963;  339,655;  305,600;  332,450
367,040;  358,055;  348,600;  348,450
367,118;  330,155;  315,600;  299,450
367,196;  349,155;  322,600;  355,450
367,273;  328,255;  331,600;  352,450
367,351;  328,155;  314,600;  320,450
367,428;  362,355;  351,600;  360,450
367,506;  346,655;  361,600;  305,450
367,584;  371,755;  352,600;  377,450
367,661;  348,255;  329,600;  332,450
367,739;  331,955;  328,600;  328,450
367,816;  320,855;  343,600;  292,450
367,894;  346,155;  368,600;  312,450
367,971;  335,455;  309,600;  328,450
368,049;  361,355;  376,600;  316,450
368,126;  323,355;  329,600;  318,450
368,204;  369,355;  333,600;  342,450
368,281;  353,655;  375,600;  360,450
368,359;  345,755;  352,600;  332,450
368,436;  350,855;  349,600;  336,450
368,514;  347,755;  344,600;  337,450
368,591;  350,155;  344,600;  347,450
368,668;  348,855;  375,600;  336,450
368,746;  353,855;  387,600;  352,450
368,823;  346,355;  338,600;  380,450
368,901;  336,755;  325,600;  328,450
368,978;  359,455;  329,600;  311,450
369,055;  348,055;  339,600;  332,450
369,133;  372,855;  371,600;  352,450
369,210;  348,055;  328,600;  366,450
369,287;  362,055;  364,600;  366,450
369,365;  376,755;  380,600;  367,450
369,442;  347,555;  347,600;  350,450
369,519;  314,955;  321,600;  298,450
369,596;  376,955;  359,600;  339,450
369,674;  338,955;  327,600;  283,450
369,751;  366,155;  337,600;  371,450
369,828;  352,455;  351,600;  337,450
369,905;  360,955;  358,600;  377,450
369,983;  333,355;  305,600;  327,450
370,060;  335,655;  323,600;  301,450
370,137;  375,555;  394,600;  401,450
370,214;  341,555;  321,600;  374,450
370,291;  359,255;  350,600;  340,450
370,368;  358,255;  356,600;  383,450
370,446;  332,155;  301,600;  350,450
370,523;  323,455;  360,600;  316,450
370,600;  350,155;  368,600;  319,450
370,677;  347,055;  348,600;  332,450
370,754;  344,155;  343,600;  331,450
370,831;  344,355;  352,600;  343,450
370,908;  371,655;  347,600;  374,450
370,985;  327,455;  333,600;  281,450
371,062;  344,155;  341,600;  344,450
371,139;  364,355;  361,600;  363,450
371,216;  367,355;  351,600;  347,450
371,293;  344,655;  329,600;  359,450
371,370;  324,255;  322,600;  314,450
371,447;  353,655;  346,600;  342,450
371,524;  366,955;  346,600;  357,450
371,601;  373,655;  371,600;  341,450
371,678;  374,255;  350,600;  355,450
371,755;  352,655;  366,600;  335,450
371,832;  381,455;  370,600;  375,450
371,909;  336,055;  370,600;  318,450
371,986;  383,455;  371,600;  394,450
372,063;  343,755;  324,600;  329,450
372,140;  354,855;  342,600;  359,450
372,216;  353,055;  356,600;  331,450
372,293;  350,355;  310,600;  347,450
372,370;  367,755;  375,600;  357,450
372,447;  347,355;  329,600;  372,450
372,524;  349,855;  350,600;  371,450
372,601;  358,855;  369,600;  321,450
372,677;  334,755;  344,600;  333,450
372,754;  354,855;  355,600;  360,450
372,831;  361,355;  356,600;  354,450
372,908;  371,355;  380,600;  385,450
372,984;  356,755;  362,600;  356,450
373,061;  351,555;  317,600;  334,450
373,138;  349,955;  367,600;  366,450
373,215;  350,955;  329,600;  317,450
373,291;  354,455;  347,600;  356,450
373,368;  351,855;  378,600;  362,450
373,445;  352,555;  374,600;  345,450
373,521;  346,655;  355,600;  341,450
373,598;  348,055;  354,600;  314,450
373,675;  344,055;  335,600;  358,450
373,751;  355,155;  336,600;  357,450
373,828;  337,655;  338,600;  346,450
373,904;  396,455;  409,600;  394,450
373,981;  326,255;  340,600;  337,450
374,057;  360,555;  343,600;  341,450
374,134;  329,355;  339,600;  316,450
374,211;  347,755;  330,600;  339,450
374,287;  337,355;  336,600;  339,450
374,364;  365,055;  379,600;  370,450
374,440;  326,455;  279,600;  284,450
374,517;  373,355;  367,600;  360,450
374,593;  319,855;  326,600;  299,450
374,670;  341,355;  335,600;  311,450
374,746;  342,455;  347,600;  339,450
374,823;  366,855;  389,600;  364,450
374,899;  364,655;  353,600;  394,450
374,975;  333,555;  336,600;  333,450
375,052;  334,355;  327,600;  327,450
375,128;  327,655;  281,600;  339,450
375,205;  366,455;  346,600;  378,450
375,281;  332,855;  294,600;  331,450
375,357;  367,355;  371,600;  352,450
375,434;  336,955;  313,600;  355,450
375,510;  344,655;  354,600;  323,450
375,586;  348,655;  356,600;  351,450
375,663;  324,355;  314,600;  307,450
375,739;  357,755;  355,600;  380,450
375,815;  355,355;  340,600;  317,450
375,892;  349,155;  340,600;  341,450
375,968;  339,255;  313,600;  325,450
376,044;  342,355;  370,600;  333,450
376,120;  335,555;  311,600;  364,450
376,197;  346,055;  361,600;  328,450
376,273;  334,655;  347,600;  334,450
376,349;  385,155;  386,600;  368,450
376,425;  361,955;  378,600;  336,450
376,501;  351,455;  329,600;  348,450
376,578;  363,755;  332,600;  426,450
376,654;  388,355;  393,600;  365,450
376,730;  363,755;  340,600;  352,450
376,806;  372,255;  346,600;  382,450
376,882;  377,155;  376,600;  332,450
376,958;  383,755;  367,600;  347,450
377,034;  325,155;  320,600;  296,450
377,111;  360,755;  393,600;  358,450
377,187;  393,255;  410,600;  383,450
377,263;  383,355;  397,600;  372,450
377,339;  349,855;  341,600;  319,450
377,415;  370,355;  339,600;  356,450
377,491;  348,155;  362,600;  325,450
377,567;  356,455;  340,600;  369,450
377,643;  382,555;  376,600;  362,450
377,719;  376,455;  368,600;  351,450
377,795;  351,855;  313,600;  350,450
377,871;  369,655;  366,600;  386,450
377,947;  359,555;  343,600;  352,450
378,023;  352,055;  355,600;  339,450
378,099;  349,155;  325,600;  367,450
378,174;  368,455;  364,600;  365,450
378,250;  364,455;  372,600;  389,450
378,326;  369,055;  369,600;  382,450
378,402;  365,555;  359,600;  343,450
378,478;  359,755;  340,600;  355,450
378,554;  368,055;  347,600;  374,450
378,630;  365,455;  369,600;  336,450
378,706;  365,955;  364,600;  321,450
378,781;  393,255;  387,600;  385,450
378,857;  362,955;  359,600;  347,450
378,933;  367,055;  359,600;  335,450
379,009;  350,555;  346,600;  342,450
379,085;  397,155;  419,600;  384,450
379,160;  377,255;  381,600;  366,450
379,236;  368,655;  359,600;  361,450
379,312;  369,655;  337,600;  365,450
379,387;  356,155;  372,600;  349,450
379,463;  364,655;  355,600;  344,450
379,539;  373,355;  408,600;  387,450
379,615;  366,555;  337,600;  364,450
379,690;  403,455;  420,600;  410,450
379,766;  381,155;  389,600;  370,450
379,842;  388,555;  385,600;  366,450
379,917;  379,455;  389,600;  369,450
379,993;  370,755;  370,600;  358,450
380,068;  366,755;  341,600;  349,450
380,144;  382,955;  398,600;  393,450
380,220;  383,855;  388,600;  391,450
380,295;  358,755;  356,600;  356,450
380,371;  359,255;  358,600;  361,450
380,446;  371,855;  418,600;  376,450
380,522;  347,155;  340,600;  360,450
380,597;  367,155;  377,600;  349,450
380,673;  390,555;  395,600;  384,450
380,748;  361,055;  338,600;  344,450
380,824;  374,855;  364,600;  362,450
380,899;  387,155;  371,600;  364,450
380,975;  349,955;  388,600;  402,450
381,050;  355,355;  363,600;  336,450
381,126;  372,055;  370,600;  362,450
381,201;  402,355;  407,600;  405,450
381,277;  378,455;  367,600;  390,450
381,352;  396,055;  389,600;  377,450
381,427;  384,455;  359,600;  370,450
381,503;  366,655;  394,600;  377,450
381,578;  369,855;  363,600;  360,450
381,653;  367,055;  381,600;  387,450
381,729;  367,655;  346,600;  360,450
381,804;  364,155;  373,600;  375,450
381,879;  392,755;  380,600;  366,450
381,955;  361,855;  343,600;  346,450
382,030;  360,355;  346,600;  339,450
382,105;  373,455;  372,600;  372,450
382,181;  370,455;  382,600;  367,450
382,256;  374,555;  373,600;  383,450
382,331;  369,755;  371,600;  375,450
382,406;  353,155;  368,600;  343,450
382,482;  368,355;  371,600;  380,450
382,557;  364,255;  362,600;  335,450
382,632;  371,755;  364,600;  365,450
382,707;  368,155;  393,600;  349,450
382,782;  369,955;  395,600;  385,450
382,857;  364,055;  373,600;  356,450
382,933;  355,555;  354,600;  349,450
383,008;  342,055;  325,600;  336,450
383,083;  382,155;  382,600;  360,450
383,158;  383,855;  375,600;  368,450
383,233;  370,455;  368,600;  362,450
383,308;  376,255;  360,600;  326,450
383,383;  382,255;  394,600;  390,450
383,458;  368,155;  344,600;  340,450
383,533;  341,755;  331,600;  334,450
383,608;  393,255;  367,600;  381,450
383,683;  382,455;  381,600;  367,450
383,758;  386,355;  398,600;  353,450
383,833;  367,255;  343,600;  350,450
383,908;  345,855;  321,600;  367,450
383,983;  349,355;  365,600;  328,450
384,058;  356,155;  340,600;  383,450
384,133;  362,455;  372,600;  376,450
384,208;  374,955;  395,600;  375,450
384,283;  354,855;  362,600;  321,450
384,358;  374,255;  392,600;  390,450
384,433;  357,955;  347,600;  341,450
384,508;  371,355;  339,600;  338,450
384,583;  371,455;  337,600;  355,450
384,658;  375,355;  352,600;  366,450
384,732;  340,355;  329,600;  319,450
384,807;  364,555;  347,600;  366,450
384,882;  372,655;  391,600;  349,450
384,957;  371,155;  348,600;  345,450
385,032;  382,055;  383,600;  373,450
385,106;  368,555;  342,600;  369,450
385,181;  356,555;  353,600;  359,450
385,256;  364,455;  367,600;  336,450
385,331;  384,155;  375,600;  364,450
385,405;  379,855;  383,600;  400,450
385,480;  363,655;  362,600;  372,450
385,555;  405,255;  402,600;  399,450
385,630;  397,455;  369,600;  370,450
385,704;  375,555;  353,600;  390,450
385,779;  363,655;  363,600;  368,450
385,854;  366,455;  364,600;  380,450
385,928;  364,355;  348,600;  365,450
386,003;  407,655;  390,600;  397,450
386,078;  384,455;  374,600;  369,450
386,152;  388,155;  391,600;  412,450
386,227;  358,455;  347,600;  354,450
386,301;  377,455;  389,600;  348,450
386,376;  359,255;  352,600;  346,450
386,450;  389,555;  356,600;  374,450
386,525;  384,155;  357,600;  376,450
386,600;  389,855;  367,600;  381,450
386,674;  364,755;  374,600;  364,450
386,749;  371,955;  395,600;  359,450
386,823;  379,255;  363,600;  377,450
386,898;  382,255;  386,600;  374,450
386,972;  389,655;  383,600;  354,450
387,047;  372,755;  368,600;  364,450
387,121;  385,655;  375,600;  363,450
387,195;  358,955;  359,600;  352,450
387,270;  387,455;  384,600;  385,450
387,344;  413,155;  429,600;  393,450
387,419;  391,055;  367,600;  412,450
387,493;  384,055;  371,600;  377,450
387,567;  362,055;  351,600;  336,450
387,642;  408,455;  383,600;  402,450
387,716;  380,255;  368,600;  378,450
387,790;  374,055;  337,600;  366,450
387,865;  381,655;  351,600;  364,450
387,939;  407,455;  405,600;  406,450
388,013;  379,955;  377,600;  417,450
388,088;  375,155;  361,600;  363,450
388,162;  363,955;  366,600;  355,450
388,236;  377,655;  381,600;  416,450
388,310;  359,655;  368,600;  361,450
388,385;  392,855;  324,600;  400,450
388,459;  377,255;  362,600;  379,450
388,533;  359,955;  378,600;  365,450
388,607;  363,355;  374,600;  378,450
388,682;  372,555;  369,600;  394,450
388,756;  355,255;  375,600;  378,450
388,830;  391,555;  378,600;  413,450
388,904;  382,355;  382,600;  382,450
388,978;  366,955;  368,600;  361,450
389,052;  371,155;  390,600;  343,450
389,126;  375,055;  353,600;  387,450
389,200;  377,355;  376,600;  362,450
389,275;  371,055;  382,600;  389,450
389,349;  365,055;  405,600;  380,450
389,423;  365,455;  380,600;  369,450
389,497;  378,255;  426,600;  377,450
389,571;  367,655;  391,600;  375,450
389,645;  381,755;  378,600;  388,450
389,719;  379,555;  384,600;  388,450
389,793;  339,755;  341,600;  322,450
389,867;  400,355;  410,600;  386,450
389,941;  365,955;  367,600;  369,450
390,015;  362,155;  348,600;  372,450
390,089;  356,055;  369,600;  344,450
390,163;  384,155;  368,600;  375,450
390,237;  373,755;  356,600;  361,450
390,310;  374,755;  393,600;  366,450
390,384;  392,955;  383,600;  344,450
390,458;  400,855;  414,600;  432,450
390,532;  389,855;  401,600;  395,450
390,606;  371,955;  361,600;  328,450
390,680;  366,855;  354,600;  373,450
390,754;  361,155;  373,600;  342,450
390,827;  399,455;  382,600;  388,450
390,901;  391,155;  362,600;  377,450
390,975;  373,055;  366,600;  368,450
391,049;  368,555;  374,600;  392,450
391,123;  359,855;  342,600;  367,450
391,196;  365,255;  344,600;  368,450
391,270;  375,355;  372,600;  366,450
391,344;  360,955;  384,600;  374,450
391,418;  371,555;  368,600;  366,450
391,491;  354,855;  362,600;  365,450
391,565;  377,855;  341,600;  346,450
391,639;  388,855;  379,600;  381,450
391,712;  388,155;  373,600;  385,450
391,786;  387,055;  401,600;  429,450
391,860;  372,055;  354,600;  354,450
391,933;  368,355;  366,600;  333,450
392,007;  384,055;  393,600;  364,450
392,081;  404,555;  404,600;  366,450
392,154;  379,955;  366,600;  394,450
392,228;  391,655;  392,600;  387,450
392,301;  379,655;  366,600;  402,450
392,375;  391,355;  394,600;  406,450
392,448;  383,955;  397,600;  375,450
392,522;  374,755;  382,600;  383,450
392,595;  374,755;  389,600;  365,450
392,669;  384,955;  386,600;  367,450
392,742;  403,955;  378,600;  401,450
392,816;  396,055;  376,600;  383,450
392,889;  394,855;  392,600;  401,450
392,963;  415,155;  400,600;  382,450
393,036;  386,355;  366,600;  401,450
393,110;  404,355;  388,600;  376,450
393,183;  409,555;  407,600;  399,450
393,257;  407,755;  437,600;  408,450
393,330;  372,355;  373,600;  391,450
393,403;  394,255;  410,600;  372,450
393,477;  357,855;  347,600;  364,450
393,550;  397,055;  413,600;  387,450
393,623;  397,055;  374,600;  402,450
393,697;  406,955;  404,600;  411,450
393,770;  382,655;  386,600;  364,450
393,843;  410,055;  419,600;  412,450
393,917;  408,755;  400,600;  407,450
393,990;  414,455;  378,600;  395,450
394,063;  391,755;  403,600;  375,450
394,136;  394,355;  390,600;  390,450
394,210;  391,255;  393,600;  380,450
394,283;  405,855;  385,600;  395,450
394,356;  396,855;  410,600;  373,450
394,429;  393,555;  399,600;  357,450
394,502;  390,355;  404,600;  373,450
394,576;  413,455;  416,600;  404,450
394,649;  377,355;  376,600;  381,450
394,722;  404,955;  390,600;  390,450
394,795;  413,655;  413,600;  406,450
394,868;  389,655;  369,600;  390,450
394,941;  374,855;  371,600;  368,450
395,014;  411,955;  419,600;  416,450
395,088;  404,555;  404,600;  391,450
395,161;  400,155;  402,600;  399,450
395,234;  408,455;  390,600;  397,450
395,307;  407,355;  413,600;  388,450
395,380;  394,055;  393,600;  392,450
395,453;  434,255;  439,600;  425,450
395,526;  412,255;  430,600;  407,450
395,599;  426,655;  422,600;  432,450
395,672;  397,955;  378,600;  408,450
395,745;  427,855;  400,600;  390,450
395,818;  375,255;  385,600;  376,450
395,891;  387,155;  408,600;  379,450
395,964;  413,355;  398,600;  436,450
396,036;  387,755;  400,600;  390,450
396,109;  393,955;  399,600;  381,450
396,182;  402,055;  392,600;  382,450
396,255;  393,455;  417,600;  383,450
396,328;  409,455;  412,600;  432,450
396,401;  367,855;  363,600;  381,450
396,474;  384,155;  399,600;  360,450
396,547;  403,555;  411,600;  417,450
396,619;  393,555;  384,600;  393,450
396,692;  404,355;  371,600;  354,450
396,765;  372,955;  375,600;  376,450
396,838;  383,355;  367,600;  390,450
396,911;  377,455;  363,600;  352,450
396,983;  395,155;  385,600;  396,450
397,056;  369,055;  375,600;  367,450
397,129;  390,555;  369,600;  368,450
397,201;  391,255;  413,600;  395,450
397,274;  380,555;  379,600;  382,450
397,347;  361,455;  364,600;  378,450
397,420;  382,655;  373,600;  379,450
397,492;  402,255;  404,600;  380,450
397,565;  378,555;  372,600;  365,450
397,637;  365,355;  371,600;  361,450
397,710;  353,855;  349,600;  341,450
397,783;  412,755;  444,600;  401,450
397,855;  346,555;  363,600;  346,450
397,928;  363,355;  381,600;  330,450
398,000;  394,055;  369,600;  384,450
398,073;  384,355;  376,600;  372,450
398,146;  380,355;  365,600;  358,450
398,218;  396,155;  417,600;  363,450
398,291;  387,655;  398,600;  385,450
398,363;  373,655;  370,600;  358,450
398,436;  369,655;  369,600;  360,450
398,508;  394,755;  378,600;  369,450
398,581;  374,055;  368,600;  367,450
398,653;  373,755;  318,600;  382,450
398,726;  385,755;  376,600;  371,450
398,798;  387,955;  390,600;  376,450
398,870;  390,155;  374,600;  374,450
398,943;  365,955;  371,600;  357,450
399,015;  366,455;  362,600;  383,450
399,088;  387,955;  377,600;  373,450
399,160;  373,955;  370,600;  348,450
399,232;  356,955;  332,600;  349,450
399,305;  374,855;  379,600;  362,450
399,377;  384,655;  350,600;  343,450
399,449;  379,055;  398,600;  388,450
399,522;  420,955;  442,600;  416,450
399,594;  358,755;  359,600;  346,450
399,666;  382,055;  393,600;  361,450
399,738;  373,255;  378,600;  375,450
399,811;  369,955;  370,600;  388,450
399,883;  389,355;  392,600;  378,450
399,955;  393,955;  429,600;  331,450
400,027;  360,155;  342,600;  364,450
400,100;  402,155;  402,600;  427,450
400,172;  353,055;  360,600;  354,450
400,244;  381,755;  369,600;  361,450
400,316;  401,055;  396,600;  381,450
400,388;  388,955;  408,600;  368,450
400,460;  364,655;  350,600;  359,450
400,532;  353,055;  329,600;  337,450
400,605;  373,555;  378,600;  368,450
400,677;  393,455;  389,600;  380,450
400,749;  399,055;  403,600;  406,450
400,821;  382,955;  384,600;  385,450
400,893;  379,955;  364,600;  384,450
400,965;  377,755;  390,600;  380,450
401,037;  383,155;  376,600;  402,450
401,109;  363,955;  363,600;  365,450
401,181;  373,555;  383,600;  398,450

