p10promedio
Integration time [ms]:   0,150
Averaging Nr. [scans]: 10
Smoothing Nr. [pixels]: 0
Data measured with spectrometer [name]: 7416147SP
Wave   ;Sample   ;Dark     ;Reference
[nm]   ;[counts] ;[counts] ;[counts] 

230,218;  292,592;  284,600;  274,450
230,311;  315,693;  306,600;  296,450
230,404;  308,392;  298,600;  326,450
230,497;  316,592;  295,600;  309,450
230,591;  332,992;  342,600;  328,450
230,684;  322,092;  317,600;  333,450
230,777;  306,992;  318,600;  312,450
230,870;  319,193;  330,600;  321,450
230,964;  317,592;  321,600;  306,450
231,057;  330,793;  306,600;  332,450
231,150;  323,092;  320,600;  304,450
231,243;  333,092;  310,600;  310,450
231,336;  330,492;  334,600;  326,450
231,430;  318,992;  320,600;  279,450
231,523;  322,193;  346,600;  304,450
231,616;  308,092;  297,600;  290,450
231,709;  348,992;  328,600;  315,450
231,802;  308,392;  280,600;  295,450
231,895;  317,892;  293,600;  313,450
231,988;  328,193;  312,600;  320,450
232,082;  306,092;  316,600;  281,450
232,175;  321,693;  289,600;  279,450
232,268;  318,193;  319,600;  301,450
232,361;  312,793;  288,600;  264,450
232,454;  342,693;  297,600;  320,450
232,547;  320,793;  333,600;  272,450
232,640;  307,293;  314,600;  287,450
232,733;  321,293;  297,600;  300,450
232,826;  304,793;  303,600;  270,450
232,919;  325,193;  318,600;  294,450
233,012;  307,693;  322,600;  292,450
233,105;  312,992;  318,600;  283,450
233,199;  319,092;  324,600;  298,450
233,292;  297,892;  293,600;  307,450
233,385;  270,492;  262,600;  233,450
233,478;  303,092;  302,600;  272,450
233,571;  338,293;  314,600;  293,450
233,664;  315,193;  341,600;  283,450
233,757;  292,193;  254,600;  231,450
233,850;  293,992;  272,600;  248,450
233,943;  293,392;  298,600;  272,450
234,035;  317,992;  318,600;  292,450
234,128;  287,293;  282,600;  265,450
234,221;  310,992;  310,600;  293,450
234,314;  322,193;  333,600;  318,450
234,407;  321,693;  338,600;  286,450
234,500;  291,592;  286,600;  280,450
234,593;  301,793;  280,600;  290,450
234,686;  303,693;  276,600;  256,450
234,779;  292,392;  270,600;  275,450
234,872;  290,992;  276,600;  261,450
234,965;  299,892;  298,600;  286,450
235,058;  295,793;  269,600;  263,450
235,150;  299,592;  311,600;  286,450
235,243;  289,293;  280,600;  311,450
235,336;  325,793;  317,600;  296,450
235,429;  280,092;  258,600;  241,450
235,522;  336,793;  352,600;  293,450
235,615;  274,992;  309,600;  253,450
235,707;  294,492;  289,600;  277,450
235,800;  301,492;  302,600;  268,450
235,893;  297,092;  328,600;  262,450
235,986;  306,992;  305,600;  312,450
236,079;  298,193;  310,600;  308,450
236,171;  280,693;  272,600;  270,450
236,264;  314,392;  310,600;  282,450
236,357;  300,793;  289,600;  297,450
236,450;  318,992;  314,600;  308,450
236,542;  284,392;  286,600;  258,450
236,635;  327,793;  319,600;  287,450
236,728;  295,793;  276,600;  273,450
236,821;  292,392;  270,600;  268,450
236,913;  295,392;  326,600;  268,450
237,006;  280,592;  300,600;  257,450
237,099;  292,793;  289,600;  271,450
237,191;  311,392;  345,600;  288,450
237,284;  280,992;  256,600;  282,450
237,377;  313,392;  294,600;  312,450
237,470;  305,092;  291,600;  256,450
237,562;  284,693;  266,600;  261,450
237,655;  335,193;  342,600;  294,450
237,747;  313,793;  325,600;  263,450
237,840;  325,293;  292,600;  302,450
237,933;  310,492;  327,600;  284,450
238,025;  314,293;  338,600;  306,450
238,118;  295,492;  306,600;  287,450
238,211;  269,992;  282,600;  227,450
238,303;  274,392;  277,600;  273,450
238,396;  274,793;  289,600;  270,450
238,488;  309,892;  300,600;  281,450
238,581;  283,992;  306,600;  235,450
238,673;  305,793;  304,600;  273,450
238,766;  290,193;  268,600;  282,450
238,859;  287,992;  282,600;  277,450
238,951;  291,392;  295,600;  280,450
239,044;  290,193;  270,600;  283,450
239,136;  282,193;  269,600;  284,450
239,229;  290,793;  297,600;  291,450
239,321;  290,193;  262,600;  248,450
239,414;  308,992;  289,600;  288,450
239,506;  292,492;  280,600;  267,450
239,599;  329,092;  352,600;  292,450
239,691;  288,392;  306,600;  269,450
239,784;  316,293;  296,600;  288,450
239,876;  296,793;  280,600;  288,450
239,969;  295,892;  287,600;  281,450
240,061;  283,693;  277,600;  262,450
240,153;  291,592;  260,600;  278,450
240,246;  299,892;  295,600;  292,450
240,338;  318,492;  309,600;  324,450
240,431;  275,693;  277,600;  282,450
240,523;  280,693;  300,600;  237,450
240,615;  308,392;  293,600;  321,450
240,708;  322,592;  355,600;  292,450
240,800;  298,492;  302,600;  288,450
240,893;  283,592;  274,600;  261,450
240,985;  300,793;  321,600;  270,450
241,077;  284,392;  268,600;  262,450
241,170;  306,992;  313,600;  286,450
241,262;  302,392;  284,600;  284,450
241,354;  260,592;  246,600;  244,450
241,447;  292,193;  286,600;  271,450
241,539;  277,693;  295,600;  247,450
241,631;  325,092;  312,600;  279,450
241,724;  272,592;  261,600;  246,450
241,816;  298,793;  258,600;  264,450
241,908;  285,092;  278,600;  263,450
242,000;  296,892;  283,600;  263,450
242,093;  296,193;  303,600;  261,450
242,185;  283,793;  306,600;  269,450
242,277;  282,793;  282,600;  242,450
242,369;  294,193;  278,600;  269,450
242,462;  289,293;  271,600;  247,450
242,554;  285,592;  253,600;  266,450
242,646;  295,693;  282,600;  270,450
242,738;  313,492;  320,600;  281,450
242,830;  267,592;  292,600;  230,450
242,923;  313,793;  309,600;  303,450
243,015;  273,793;  288,600;  269,450
243,107;  280,492;  280,600;  253,450
243,199;  289,193;  309,600;  300,450
243,291;  283,592;  319,600;  253,450
243,383;  269,392;  240,600;  273,450
243,476;  275,193;  257,600;  282,450
243,568;  289,693;  293,600;  284,450
243,660;  287,092;  260,600;  268,450
243,752;  294,392;  305,600;  270,450
243,844;  315,892;  299,600;  284,450
243,936;  296,193;  316,600;  299,450
244,028;  310,892;  332,600;  290,450
244,120;  261,193;  267,600;  230,450
244,212;  292,092;  298,600;  289,450
244,305;  271,693;  267,600;  270,450
244,397;  299,992;  315,600;  267,450
244,489;  311,492;  303,600;  285,450
244,581;  304,992;  301,600;  279,450
244,673;  293,892;  286,600;  252,450
244,765;  294,793;  277,600;  293,450
244,857;  291,592;  303,600;  251,450
244,949;  297,092;  305,600;  282,450
245,041;  266,693;  250,600;  223,450
245,133;  303,892;  294,600;  292,450
245,225;  290,992;  258,600;  248,450
245,317;  291,193;  253,600;  267,450
245,409;  276,092;  282,600;  263,450
245,501;  286,992;  286,600;  265,450
245,593;  306,293;  328,600;  278,450
245,685;  296,892;  330,600;  286,450
245,776;  291,193;  298,600;  267,450
245,868;  284,392;  308,600;  263,450
245,960;  268,293;  242,600;  252,450
246,052;  317,092;  291,600;  307,450
246,144;  303,293;  282,600;  285,450
246,236;  286,892;  296,600;  257,450
246,328;  296,592;  285,600;  287,450
246,420;  284,193;  282,600;  270,450
246,512;  312,592;  303,600;  295,450
246,604;  292,293;  280,600;  278,450
246,695;  277,293;  275,600;  268,450
246,787;  302,892;  288,600;  299,450
246,879;  289,193;  296,600;  275,450
246,971;  302,992;  305,600;  285,450
247,063;  287,092;  281,600;  253,450
247,155;  307,693;  295,600;  240,450
247,246;  291,693;  305,600;  285,450
247,338;  295,892;  297,600;  287,450
247,430;  305,992;  298,600;  312,450
247,522;  307,392;  294,600;  294,450
247,613;  298,092;  287,600;  278,450
247,705;  305,392;  302,600;  286,450
247,797;  327,592;  322,600;  301,450
247,889;  314,892;  294,600;  286,450
247,980;  316,193;  318,600;  273,450
248,072;  311,693;  315,600;  275,450
248,164;  351,293;  368,600;  297,450
248,256;  299,793;  280,600;  302,450
248,347;  315,492;  312,600;  275,450
248,439;  292,492;  302,600;  260,450
248,531;  316,092;  301,600;  297,450
248,622;  319,293;  315,600;  318,450
248,714;  290,293;  303,600;  257,450
248,806;  305,892;  301,600;  287,450
248,897;  294,693;  266,600;  290,450
248,989;  271,892;  260,600;  246,450
249,081;  297,193;  291,600;  305,450
249,172;  307,693;  289,600;  264,450
249,264;  284,492;  310,600;  303,450
249,356;  283,992;  274,600;  253,450
249,447;  291,892;  287,600;  283,450
249,539;  287,892;  289,600;  288,450
249,630;  298,193;  296,600;  286,450
249,722;  324,193;  310,600;  305,450
249,813;  295,193;  302,600;  256,450
249,905;  298,592;  319,600;  291,450
249,997;  288,992;  270,600;  248,450
250,088;  299,892;  295,600;  285,450
250,180;  301,592;  280,600;  288,450
250,271;  305,793;  296,600;  268,450
250,363;  332,592;  329,600;  307,450
250,454;  286,392;  268,600;  238,450
250,546;  300,492;  271,600;  272,450
250,637;  281,992;  285,600;  242,450
250,729;  286,392;  267,600;  250,450
250,820;  311,592;  306,600;  297,450
250,912;  287,193;  299,600;  243,450
251,003;  294,592;  285,600;  296,450
251,095;  297,892;  296,600;  273,450
251,186;  291,193;  269,600;  253,450
251,277;  291,992;  276,600;  290,450
251,369;  300,193;  295,600;  275,450
251,460;  284,592;  272,600;  272,450
251,552;  297,793;  293,600;  292,450
251,643;  298,193;  292,600;  276,450
251,735;  300,092;  303,600;  241,450
251,826;  297,092;  313,600;  259,450
251,917;  323,193;  325,600;  258,450
252,009;  327,392;  338,600;  254,450
252,100;  327,092;  343,600;  266,450
252,191;  353,193;  337,600;  260,450
252,283;  347,592;  328,600;  299,450
252,374;  360,492;  372,600;  289,450
252,465;  395,193;  390,600;  301,450
252,557;  386,892;  393,600;  251,450
252,648;  400,392;  378,600;  258,450
252,739;  408,992;  397,600;  267,450
252,831;  421,492;  439,600;  250,450
252,922;  454,392;  440,600;  266,450
253,013;  501,992;  520,600;  241,450
253,104;  564,292;  576,600;  255,450
253,196;  677,992;  712,600;  265,450
253,287;  838,992;  807,600;  289,450
253,378; 1217,093; 1233,600;  257,450
253,469; 4227,592; 4083,600;  246,450
253,561;23025,393;23239,600;  253,450
253,652;41953,391;42949,602;  272,450
253,743; 5731,092; 5893,600;  210,450
253,834;  622,093;  622,600;  260,450
253,926;  502,992;  531,600;  249,450
254,017;  477,892;  459,600;  280,450
254,108;  458,793;  528,600;  290,450
254,199;  451,793;  418,600;  277,450
254,290;  433,193;  380,600;  290,450
254,381;  396,193;  429,600;  276,450
254,472;  410,392;  437,600;  250,450
254,564;  420,092;  411,600;  327,450
254,655;  388,293;  392,600;  304,450
254,746;  340,793;  345,600;  225,450
254,837;  369,392;  372,600;  282,450
254,928;  344,392;  368,600;  247,450
255,019;  369,392;  375,600;  281,450
255,110;  365,793;  357,600;  302,450
255,201;  340,793;  318,600;  284,450
255,292;  371,392;  381,600;  271,450
255,383;  351,592;  347,600;  265,450
255,474;  334,193;  329,600;  248,450
255,566;  344,793;  366,600;  271,450
255,657;  340,092;  350,600;  306,450
255,748;  310,892;  292,600;  235,450
255,839;  312,293;  331,600;  282,450
255,930;  329,193;  292,600;  302,450
256,021;  333,193;  336,600;  297,450
256,112;  313,293;  296,600;  257,450
256,203;  348,992;  339,600;  315,450
256,294;  329,492;  321,600;  265,450
256,384;  309,793;  279,600;  261,450
256,475;  322,193;  289,600;  284,450
256,566;  302,092;  297,600;  274,450
256,657;  290,293;  291,600;  267,450
256,748;  301,392;  302,600;  280,450
256,839;  297,492;  281,600;  274,450
256,930;  293,492;  278,600;  260,450
257,021;  330,193;  328,600;  283,450
257,112;  324,193;  311,600;  327,450
257,203;  270,392;  268,600;  240,450
257,294;  279,193;  276,600;  257,450
257,385;  293,392;  284,600;  272,450
257,475;  284,193;  277,600;  255,450
257,566;  314,592;  313,600;  267,450
257,657;  286,892;  339,600;  264,450
257,748;  286,892;  283,600;  252,450
257,839;  288,293;  319,600;  306,450
257,930;  290,892;  276,600;  275,450
258,020;  278,693;  278,600;  281,450
258,111;  264,193;  285,600;  256,450
258,202;  302,592;  309,600;  258,450
258,293;  293,492;  267,600;  255,450
258,384;  313,892;  329,600;  295,450
258,474;  293,592;  296,600;  244,450
258,565;  273,992;  250,600;  252,450
258,656;  300,693;  306,600;  257,450
258,747;  274,592;  293,600;  255,450
258,837;  286,793;  266,600;  231,450
258,928;  289,392;  247,600;  280,450
259,019;  274,992;  272,600;  264,450
259,109;  274,892;  264,600;  254,450
259,200;  302,492;  292,600;  291,450
259,291;  269,592;  246,600;  297,450
259,381;  295,793;  309,600;  264,450
259,472;  293,392;  299,600;  272,450
259,563;  308,392;  307,600;  273,450
259,653;  286,492;  281,600;  247,450
259,744;  278,492;  280,600;  260,450
259,835;  306,892;  284,600;  274,450
259,925;  283,992;  257,600;  276,450
260,016;  294,592;  303,600;  282,450
260,107;  266,892;  264,600;  265,450
260,197;  291,092;  279,600;  258,450
260,288;  278,793;  263,600;  273,450
260,378;  267,293;  274,600;  244,450
260,469;  288,193;  299,600;  273,450
260,560;  255,893;  267,600;  276,450
260,650;  273,992;  269,600;  265,450
260,741;  291,793;  279,600;  256,450
260,831;  279,793;  246,600;  276,450
260,922;  268,092;  271,600;  258,450
261,012;  276,392;  271,600;  256,450
261,103;  304,693;  320,600;  294,450
261,193;  299,892;  317,600;  320,450
261,284;  278,992;  256,600;  254,450
261,374;  301,892;  295,600;  253,450
261,465;  290,492;  321,600;  304,450
261,555;  292,392;  271,600;  275,450
261,646;  301,892;  290,600;  300,450
261,736;  294,693;  265,600;  287,450
261,827;  287,092;  293,600;  256,450
261,917;  307,492;  294,600;  344,450
262,007;  288,892;  269,600;  289,450
262,098;  281,392;  334,600;  256,450
262,188;  328,492;  316,600;  305,450
262,279;  300,592;  290,600;  292,450
262,369;  287,193;  276,600;  282,450
262,459;  292,892;  262,600;  260,450
262,550;  299,492;  314,600;  290,450
262,640;  275,092;  261,600;  274,450
262,731;  302,193;  302,600;  298,450
262,821;  306,492;  287,600;  323,450
262,911;  293,892;  312,600;  268,450
263,002;  287,592;  278,600;  271,450
263,092;  303,892;  292,600;  309,450
263,182;  285,592;  280,600;  257,450
263,273;  291,592;  277,600;  261,450
263,363;  298,992;  309,600;  284,450
263,453;  282,392;  266,600;  259,450
263,543;  285,392;  289,600;  326,450
263,634;  272,193;  263,600;  262,450
263,724;  296,392;  278,600;  276,450
263,814;  304,092;  304,600;  288,450
263,904;  284,793;  270,600;  267,450
263,995;  327,992;  306,600;  321,450
264,085;  293,892;  301,600;  259,450
264,175;  283,992;  284,600;  306,450
264,265;  321,293;  305,600;  298,450
264,356;  272,592;  260,600;  289,450
264,446;  312,992;  296,600;  298,450
264,536;  287,293;  270,600;  297,450
264,626;  319,293;  315,600;  295,450
264,716;  303,492;  330,600;  277,450
264,806;  311,793;  327,600;  306,450
264,897;  252,792;  255,600;  273,450
264,987;  304,592;  310,600;  286,450
265,077;  304,592;  297,600;  285,450
265,167;  382,293;  394,600;  346,450
265,257;  321,992;  333,600;  273,450
265,347;  340,693;  331,600;  286,450
265,437;  325,592;  304,600;  289,450
265,527;  309,793;  314,600;  292,450
265,617;  282,592;  292,600;  265,450
265,708;  321,392;  330,600;  308,450
265,798;  312,892;  315,600;  301,450
265,888;  291,392;  275,600;  270,450
265,978;  305,392;  274,600;  242,450
266,068;  321,392;  291,600;  316,450
266,158;  299,592;  288,600;  254,450
266,248;  280,092;  305,600;  248,450
266,338;  318,693;  307,600;  293,450
266,428;  302,793;  294,600;  259,450
266,518;  316,992;  321,600;  320,450
266,608;  296,293;  245,600;  273,450
266,698;  266,293;  284,600;  256,450
266,788;  273,892;  263,600;  248,450
266,878;  333,092;  350,600;  317,450
266,968;  296,693;  282,600;  304,450
267,058;  302,793;  280,600;  292,450
267,147;  309,693;  327,600;  300,450
267,237;  305,592;  293,600;  276,450
267,327;  285,892;  292,600;  276,450
267,417;  297,693;  320,600;  264,450
267,507;  288,193;  297,600;  294,450
267,597;  282,092;  273,600;  272,450
267,687;  276,592;  268,600;  286,450
267,777;  282,492;  267,600;  270,450
267,867;  316,992;  321,600;  296,450
267,956;  298,592;  282,600;  257,450
268,046;  301,492;  306,600;  298,450
268,136;  299,392;  265,600;  291,450
268,226;  277,293;  269,600;  261,450
268,316;  284,092;  266,600;  262,450
268,406;  291,193;  268,600;  338,450
268,495;  283,892;  278,600;  259,450
268,585;  311,793;  304,600;  263,450
268,675;  281,092;  296,600;  260,450
268,765;  305,293;  296,600;  287,450
268,854;  283,793;  277,600;  291,450
268,944;  285,392;  288,600;  299,450
269,034;  289,693;  313,600;  279,450
269,124;  287,793;  283,600;  286,450
269,213;  280,892;  277,600;  255,450
269,303;  295,693;  290,600;  247,450
269,393;  297,392;  265,600;  307,450
269,483;  294,392;  338,600;  273,450
269,572;  290,592;  295,600;  243,450
269,662;  278,492;  286,600;  301,450
269,752;  318,693;  320,600;  299,450
269,841;  266,293;  270,600;  247,450
269,931;  290,793;  264,600;  276,450
270,021;  295,392;  299,600;  295,450
270,110;  295,992;  286,600;  268,450
270,200;  301,693;  329,600;  299,450
270,289;  270,992;  258,600;  279,450
270,379;  303,992;  315,600;  282,450
270,469;  284,193;  297,600;  273,450
270,558;  303,693;  300,600;  286,450
270,648;  281,293;  266,600;  245,450
270,737;  292,592;  288,600;  271,450
270,827;  317,193;  279,600;  263,450
270,916;  285,892;  266,600;  280,450
271,006;  287,992;  287,600;  287,450
271,096;  325,193;  312,600;  334,450
271,185;  291,892;  307,600;  299,450
271,275;  301,193;  305,600;  279,450
271,364;  280,392;  300,600;  286,450
271,454;  308,492;  301,600;  273,450
271,543;  295,092;  295,600;  279,450
271,633;  292,293;  293,600;  257,450
271,722;  285,892;  240,600;  257,450
271,812;  290,693;  255,600;  299,450
271,901;  294,892;  276,600;  286,450
271,990;  292,092;  293,600;  267,450
272,080;  286,092;  282,600;  284,450
272,169;  308,092;  339,600;  288,450
272,259;  296,793;  319,600;  275,450
272,348;  300,592;  291,600;  305,450
272,438;  295,693;  302,600;  301,450
272,527;  302,293;  288,600;  290,450
272,616;  295,092;  295,600;  300,450
272,706;  319,793;  319,600;  313,450
272,795;  320,293;  285,600;  290,450
272,884;  295,193;  302,600;  294,450
272,974;  312,592;  281,600;  279,450
273,063;  336,793;  361,600;  290,450
273,152;  308,392;  299,600;  296,450
273,242;  322,392;  296,600;  311,450
273,331;  320,392;  306,600;  299,450
273,420;  299,992;  296,600;  313,450
273,510;  308,892;  292,600;  311,450
273,599;  302,293;  323,600;  312,450
273,688;  302,193;  311,600;  299,450
273,778;  284,793;  266,600;  259,450
273,867;  313,592;  287,600;  312,450
273,956;  305,793;  303,600;  273,450
274,045;  274,793;  263,600;  236,450
274,135;  308,392;  317,600;  317,450
274,224;  288,892;  316,600;  295,450
274,313;  301,892;  299,600;  294,450
274,402;  286,592;  263,600;  266,450
274,491;  320,492;  277,600;  286,450
274,581;  304,092;  302,600;  266,450
274,670;  293,092;  311,600;  303,450
274,759;  300,793;  303,600;  283,450
274,848;  276,892;  275,600;  301,450
274,937;  296,592;  276,600;  293,450
275,026;  285,092;  298,600;  255,450
275,116;  316,793;  323,600;  309,450
275,205;  293,193;  263,600;  231,450
275,294;  322,992;  333,600;  302,450
275,383;  296,592;  253,600;  278,450
275,472;  298,293;  286,600;  299,450
275,561;  296,492;  299,600;  300,450
275,650;  308,793;  289,600;  281,450
275,739;  292,693;  268,600;  287,450
275,828;  275,092;  262,600;  259,450
275,917;  318,992;  318,600;  305,450
276,006;  301,793;  255,600;  304,450
276,095;  286,392;  276,600;  294,450
276,184;  314,492;  317,600;  317,450
276,273;  299,492;  270,600;  297,450
276,362;  269,992;  260,600;  256,450
276,451;  288,793;  271,600;  286,450
276,540;  298,793;  259,600;  271,450
276,629;  284,693;  274,600;  290,450
276,718;  268,492;  268,600;  258,450
276,807;  273,392;  275,600;  256,450
276,896;  285,492;  269,600;  277,450
276,985;  279,293;  287,600;  255,450
277,074;  305,492;  270,600;  267,450
277,163;  299,992;  289,600;  281,450
277,252;  273,092;  269,600;  278,450
277,341;  278,992;  272,600;  248,450
277,430;  285,492;  239,600;  255,450
277,519;  300,492;  304,600;  293,450
277,608;  265,992;  254,600;  244,450
277,696;  265,992;  272,600;  279,450
277,785;  278,193;  255,600;  276,450
277,874;  297,592;  285,600;  259,450
277,963;  278,092;  273,600;  248,450
278,052;  260,293;  264,600;  286,450
278,141;  284,892;  289,600;  267,450
278,229;  296,492;  279,600;  278,450
278,318;  266,592;  278,600;  269,450
278,407;  284,293;  288,600;  264,450
278,496;  284,693;  319,600;  277,450
278,585;  292,693;  288,600;  297,450
278,673;  264,492;  257,600;  251,450
278,762;  259,992;  238,600;  264,450
278,851;  284,193;  293,600;  272,450
278,940;  290,193;  293,600;  318,450
279,028;  290,092;  271,600;  284,450
279,117;  286,693;  290,600;  283,450
279,206;  279,992;  260,600;  254,450
279,294;  287,693;  280,600;  268,450
279,383;  284,693;  272,600;  289,450
279,472;  308,992;  311,600;  252,450
279,561;  291,193;  264,600;  275,450
279,649;  308,092;  305,600;  283,450
279,738;  249,092;  229,600;  266,450
279,827;  297,392;  285,600;  272,450
279,915;  276,092;  283,600;  248,450
280,004;  287,092;  273,600;  285,450
280,092;  306,492;  286,600;  275,450
280,181;  281,592;  284,600;  249,450
280,270;  288,293;  280,600;  236,450
280,358;  302,592;  299,600;  288,450
280,447;  267,592;  246,600;  240,450
280,535;  276,092;  284,600;  259,450
280,624;  269,193;  291,600;  256,450
280,713;  264,892;  267,600;  266,450
280,801;  295,492;  303,600;  274,450
280,890;  295,293;  262,600;  274,450
280,978;  287,492;  267,600;  239,450
281,067;  246,693;  229,600;  244,450
281,155;  274,793;  267,600;  279,450
281,244;  320,592;  301,600;  299,450
281,332;  294,592;  252,600;  297,450
281,421;  267,793;  273,600;  229,450
281,509;  287,892;  266,600;  268,450
281,598;  254,193;  255,600;  241,450
281,686;  299,492;  300,600;  277,450
281,775;  292,592;  283,600;  280,450
281,863;  290,193;  244,600;  264,450
281,951;  282,793;  254,600;  256,450
282,040;  315,492;  289,600;  320,450
282,128;  295,492;  289,600;  290,450
282,217;  282,392;  255,600;  246,450
282,305;  293,092;  291,600;  280,450
282,393;  289,392;  332,600;  266,450
282,482;  282,193;  314,600;  268,450
282,570;  271,793;  274,600;  279,450
282,658;  280,492;  295,600;  277,450
282,747;  264,592;  257,600;  278,450
282,835;  318,293;  319,600;  305,450
282,923;  268,592;  230,600;  262,450
283,012;  294,392;  268,600;  305,450
283,100;  269,892;  263,600;  230,450
283,188;  260,892;  244,600;  243,450
283,277;  287,693;  279,600;  282,450
283,365;  272,592;  252,600;  253,450
283,453;  264,892;  253,600;  228,450
283,542;  291,193;  293,600;  259,450
283,630;  278,092;  259,600;  271,450
283,718;  267,092;  271,600;  247,450
283,806;  243,792;  225,600;  226,450
283,894;  271,492;  276,600;  274,450
283,983;  290,492;  256,600;  279,450
284,071;  289,293;  307,600;  269,450
284,159;  317,592;  319,600;  305,450
284,247;  296,392;  296,600;  287,450
284,335;  292,092;  267,600;  263,450
284,424;  292,392;  287,600;  269,450
284,512;  286,492;  295,600;  248,450
284,600;  277,892;  261,600;  236,450
284,688;  316,992;  297,600;  325,450
284,776;  289,693;  259,600;  277,450
284,864;  304,892;  327,600;  300,450
284,952;  291,793;  291,600;  276,450
285,041;  291,793;  286,600;  304,450
285,129;  302,092;  304,600;  290,450
285,217;  306,092;  309,600;  280,450
285,305;  320,092;  297,600;  304,450
285,393;  276,992;  255,600;  268,450
285,481;  291,092;  292,600;  274,450
285,569;  285,293;  297,600;  281,450
285,657;  297,392;  272,600;  276,450
285,745;  289,193;  334,600;  282,450
285,833;  295,992;  277,600;  294,450
285,921;  300,592;  301,600;  299,450
286,009;  299,092;  308,600;  308,450
286,097;  299,892;  313,600;  288,450
286,185;  287,492;  294,600;  259,450
286,273;  279,392;  302,600;  257,450
286,361;  301,592;  322,600;  287,450
286,449;  294,092;  305,600;  260,450
286,537;  299,592;  300,600;  248,450
286,625;  298,193;  300,600;  275,450
286,713;  280,193;  262,600;  270,450
286,801;  311,592;  320,600;  307,450
286,889;  330,193;  304,600;  282,450
286,976;  292,693;  271,600;  266,450
287,064;  307,193;  297,600;  309,450
287,152;  311,092;  332,600;  299,450
287,240;  314,492;  297,600;  327,450
287,328;  285,092;  249,600;  245,450
287,416;  284,992;  295,600;  277,450
287,504;  294,793;  302,600;  274,450
287,591;  293,592;  317,600;  307,450
287,679;  287,693;  272,600;  275,450
287,767;  296,892;  270,600;  292,450
287,855;  306,992;  271,600;  284,450
287,943;  305,693;  312,600;  269,450
288,030;  294,492;  246,600;  293,450
288,118;  311,092;  325,600;  295,450
288,206;  275,892;  264,600;  290,450
288,294;  305,892;  273,600;  292,450
288,382;  305,392;  301,600;  288,450
288,469;  309,193;  324,600;  274,450
288,557;  296,592;  276,600;  275,450
288,645;  316,693;  321,600;  281,450
288,732;  282,193;  274,600;  276,450
288,820;  306,592;  334,600;  270,450
288,908;  293,492;  295,600;  295,450
288,995;  305,392;  295,600;  277,450
289,083;  295,892;  278,600;  278,450
289,171;  332,392;  328,600;  310,450
289,258;  378,693;  402,600;  311,450
289,346;  427,293;  433,600;  329,450
289,434;  310,293;  345,600;  318,450
289,521;  281,892;  298,600;  281,450
289,609;  319,492;  317,600;  309,450
289,697;  313,693;  310,600;  321,450
289,784;  298,992;  300,600;  284,450
289,872;  309,592;  314,600;  313,450
289,959;  274,193;  274,600;  262,450
290,047;  305,092;  268,600;  272,450
290,134;  282,193;  286,600;  264,450
290,222;  321,992;  317,600;  294,450
290,310;  299,092;  310,600;  280,450
290,397;  324,892;  302,600;  319,450
290,485;  291,693;  291,600;  284,450
290,572;  305,693;  286,600;  318,450
290,660;  298,193;  300,600;  293,450
290,747;  287,992;  292,600;  290,450
290,835;  296,392;  296,600;  321,450
290,922;  309,392;  307,600;  294,450
291,009;  294,293;  310,600;  283,450
291,097;  292,092;  305,600;  282,450
291,184;  327,892;  319,600;  313,450
291,272;  281,193;  297,600;  264,450
291,359;  282,092;  283,600;  283,450
291,447;  297,193;  294,600;  309,450
291,534;  325,392;  310,600;  315,450
291,621;  305,592;  261,600;  308,450
291,709;  285,092;  284,600;  270,450
291,796;  310,293;  313,600;  323,450
291,884;  288,092;  310,600;  308,450
291,971;  330,892;  306,600;  287,450
292,058;  290,992;  250,600;  294,450
292,146;  295,592;  293,600;  279,450
292,233;  283,793;  284,600;  243,450
292,320;  288,492;  294,600;  284,450
292,408;  310,492;  316,600;  297,450
292,495;  297,793;  302,600;  281,450
292,582;  284,892;  276,600;  273,450
292,669;  275,492;  273,600;  285,450
292,757;  284,892;  292,600;  288,450
292,844;  309,592;  305,600;  312,450
292,931;  270,892;  272,600;  266,450
293,018;  290,892;  267,600;  264,450
293,106;  301,293;  290,600;  324,450
293,193;  264,293;  265,600;  280,450
293,280;  312,992;  304,600;  310,450
293,367;  298,293;  279,600;  295,450
293,455;  294,793;  253,600;  248,450
293,542;  269,293;  264,600;  268,450
293,629;  273,693;  264,600;  272,450
293,716;  309,092;  341,600;  307,450
293,803;  287,293;  273,600;  279,450
293,890;  313,392;  284,600;  298,450
293,978;  281,693;  277,600;  266,450
294,065;  284,293;  293,600;  268,450
294,152;  295,693;  276,600;  315,450
294,239;  273,693;  294,600;  269,450
294,326;  283,892;  307,600;  277,450
294,413;  275,592;  280,600;  253,450
294,500;  277,992;  304,600;  286,450
294,587;  280,992;  291,600;  255,450
294,674;  300,092;  280,600;  314,450
294,761;  278,693;  283,600;  266,450
294,848;  285,992;  275,600;  288,450
294,935;  292,193;  281,600;  279,450
295,022;  274,693;  269,600;  243,450
295,109;  258,193;  259,600;  253,450
295,196;  287,693;  297,600;  309,450
295,283;  273,592;  295,600;  256,450
295,370;  305,892;  318,600;  307,450
295,457;  286,092;  266,600;  285,450
295,544;  296,193;  277,600;  264,450
295,631;  287,492;  282,600;  272,450
295,718;  277,992;  279,600;  248,450
295,805;  303,092;  298,600;  281,450
295,892;  300,193;  314,600;  274,450
295,979;  287,992;  294,600;  284,450
296,066;  301,092;  306,600;  278,450
296,153;  297,392;  313,600;  324,450
296,240;  306,992;  312,600;  282,450
296,327;  291,892;  286,600;  257,450
296,413;  311,892;  316,600;  272,450
296,500;  336,092;  330,600;  261,450
296,587;  562,093;  534,600;  268,450
296,674; 1691,892; 1749,600;  263,450
296,761;  775,992;  786,600;  252,450
296,848;  302,693;  299,600;  274,450
296,934;  289,592;  296,600;  274,450
297,021;  295,793;  286,600;  266,450
297,108;  277,892;  310,600;  269,450
297,195;  301,092;  276,600;  268,450
297,282;  287,092;  295,600;  273,450
297,368;  312,392;  297,600;  347,450
297,455;  280,992;  284,600;  259,450
297,542;  304,592;  330,600;  316,450
297,629;  307,092;  315,600;  290,450
297,715;  298,293;  309,600;  306,450
297,802;  307,892;  286,600;  273,450
297,889;  316,193;  307,600;  319,450
297,975;  317,592;  326,600;  320,450
298,062;  321,592;  325,600;  301,450
298,149;  283,793;  300,600;  269,450
298,235;  292,392;  286,600;  308,450
298,322;  294,693;  287,600;  291,450
298,409;  308,092;  340,600;  304,450
298,495;  278,592;  282,600;  250,450
298,582;  308,592;  303,600;  304,450
298,669;  294,693;  290,600;  290,450
298,755;  296,793;  295,600;  281,450
298,842;  306,492;  315,600;  314,450
298,928;  289,992;  298,600;  281,450
299,015;  287,592;  287,600;  296,450
299,102;  316,293;  306,600;  309,450
299,188;  307,293;  307,600;  292,450
299,275;  310,693;  313,600;  289,450
299,361;  280,293;  274,600;  256,450
299,448;  310,693;  283,600;  278,450
299,534;  309,693;  328,600;  282,450
299,621;  299,492;  323,600;  302,450
299,707;  309,492;  298,600;  298,450
299,794;  307,492;  318,600;  322,450
299,880;  318,892;  301,600;  313,450
299,967;  301,092;  285,600;  251,450
300,053;  297,592;  301,600;  301,450
300,140;  334,193;  314,600;  315,450
300,226;  300,092;  320,600;  297,450
300,312;  308,293;  310,600;  306,450
300,399;  308,193;  290,600;  309,450
300,485;  296,892;  310,600;  268,450
300,572;  290,992;  272,600;  257,450
300,658;  290,592;  299,600;  272,450
300,744;  307,293;  310,600;  301,450
300,831;  300,492;  302,600;  292,450
300,917;  322,992;  298,600;  310,450
301,004;  308,392;  299,600;  288,450
301,090;  273,492;  279,600;  254,450
301,176;  279,492;  284,600;  254,450
301,263;  312,992;  322,600;  282,450
301,349;  291,193;  294,600;  273,450
301,435;  275,992;  267,600;  268,450
301,521;  312,992;  323,600;  301,450
301,608;  316,592;  311,600;  319,450
301,694;  290,193;  304,600;  283,450
301,780;  290,793;  296,600;  288,450
301,867;  291,392;  281,600;  274,450
301,953;  299,492;  289,600;  304,450
302,039;  390,892;  409,600;  273,450
302,125;  534,193;  539,600;  281,450
302,211;  364,693;  349,600;  300,450
302,298;  346,592;  374,600;  261,450
302,384;  294,992;  296,600;  238,450
302,470;  285,092;  280,600;  280,450
302,556;  307,392;  331,600;  294,450
302,642;  292,193;  286,600;  226,450
302,729;  302,092;  300,600;  270,450
302,815;  319,193;  299,600;  269,450
302,901;  293,293;  267,600;  294,450
302,987;  306,793;  299,600;  293,450
303,073;  298,092;  284,600;  283,450
303,159;  292,592;  295,600;  305,450
303,245;  281,693;  279,600;  256,450
303,331;  277,293;  281,600;  277,450
303,417;  307,793;  283,600;  328,450
303,503;  314,793;  331,600;  293,450
303,590;  283,592;  289,600;  272,450
303,676;  301,592;  289,600;  302,450
303,762;  284,392;  288,600;  270,450
303,848;  310,892;  295,600;  316,450
303,934;  309,892;  323,600;  286,450
304,020;  302,793;  304,600;  288,450
304,106;  312,392;  318,600;  287,450
304,192;  295,092;  265,600;  275,450
304,278;  297,592;  297,600;  304,450
304,364;  322,793;  327,600;  303,450
304,450;  303,193;  283,600;  288,450
304,535;  297,592;  304,600;  295,450
304,621;  291,793;  302,600;  309,450
304,707;  302,592;  294,600;  296,450
304,793;  318,092;  323,600;  295,450
304,879;  295,492;  305,600;  292,450
304,965;  312,693;  297,600;  273,450
305,051;  311,492;  310,600;  260,450
305,137;  318,892;  266,600;  314,450
305,223;  285,193;  299,600;  301,450
305,309;  316,392;  306,600;  306,450
305,394;  300,092;  266,600;  282,450
305,480;  301,293;  298,600;  266,450
305,566;  305,392;  280,600;  297,450
305,652;  316,193;  297,600;  308,450
305,738;  349,492;  332,600;  315,450
305,824;  305,492;  280,600;  303,450
305,909;  319,392;  338,600;  301,450
305,995;  284,492;  267,600;  268,450
306,081;  335,992;  368,600;  334,450
306,167;  303,793;  287,600;  311,450
306,252;  324,793;  319,600;  311,450
306,338;  332,693;  332,600;  332,450
306,424;  302,193;  315,600;  260,450
306,510;  309,392;  355,600;  305,450
306,595;  321,793;  303,600;  335,450
306,681;  316,693;  321,600;  287,450
306,767;  299,492;  313,600;  286,450
306,852;  324,293;  337,600;  314,450
306,938;  322,392;  291,600;  336,450
307,024;  309,592;  281,600;  321,450
307,109;  340,492;  340,600;  327,450
307,195;  315,092;  318,600;  337,450
307,281;  319,592;  322,600;  315,450
307,366;  307,892;  319,600;  284,450
307,452;  307,592;  292,600;  312,450
307,537;  292,492;  289,600;  281,450
307,623;  298,992;  272,600;  282,450
307,709;  306,092;  302,600;  325,450
307,794;  288,793;  293,600;  258,450
307,880;  321,392;  321,600;  320,450
307,965;  304,693;  278,600;  274,450
308,051;  287,793;  263,600;  305,450
308,136;  302,492;  314,600;  260,450
308,222;  299,092;  306,600;  301,450
308,307;  291,592;  286,600;  312,450
308,393;  288,793;  294,600;  285,450
308,478;  317,092;  321,600;  308,450
308,564;  289,293;  280,600;  276,450
308,649;  304,892;  308,600;  304,450
308,735;  296,092;  320,600;  278,450
308,820;  323,092;  328,600;  304,450
308,906;  298,892;  298,600;  272,450
308,991;  329,392;  339,600;  314,450
309,076;  313,293;  335,600;  290,450
309,162;  278,392;  265,600;  245,450
309,247;  303,992;  297,600;  288,450
309,333;  291,892;  284,600;  286,450
309,418;  304,293;  281,600;  297,450
309,503;  289,293;  301,600;  289,450
309,589;  292,892;  308,600;  306,450
309,674;  281,693;  274,600;  268,450
309,759;  295,793;  291,600;  289,450
309,845;  307,793;  290,600;  312,450
309,930;  311,793;  292,600;  288,450
310,015;  274,693;  257,600;  251,450
310,101;  318,992;  282,600;  296,450
310,186;  291,793;  267,600;  298,450
310,271;  292,693;  298,600;  286,450
310,357;  288,793;  265,600;  286,450
310,442;  301,293;  288,600;  263,450
310,527;  300,693;  288,600;  306,450
310,612;  282,793;  291,600;  253,450
310,698;  310,793;  282,600;  275,450
310,783;  305,992;  288,600;  279,450
310,868;  286,693;  313,600;  263,450
310,953;  280,193;  269,600;  293,450
311,038;  306,693;  289,600;  286,450
311,124;  296,793;  296,600;  277,450
311,209;  279,592;  293,600;  291,450
311,294;  307,492;  306,600;  303,450
311,379;  277,092;  254,600;  258,450
311,464;  306,592;  302,600;  291,450
311,549;  279,992;  277,600;  294,450
311,634;  285,693;  284,600;  275,450
311,719;  315,693;  308,600;  309,450
311,805;  292,092;  308,600;  275,450
311,890;  301,092;  308,600;  261,450
311,975;  294,592;  262,600;  283,450
312,060;  310,193;  321,600;  289,450
312,145;  295,992;  277,600;  262,450
312,230;  310,592;  313,600;  285,450
312,315;  339,293;  325,600;  262,450
312,400;  404,592;  404,600;  303,450
312,485; 1710,392; 1668,600;  292,450
312,570; 1232,093; 1232,600;  239,450
312,655;  347,492;  342,600;  282,450
312,740;  335,492;  312,600;  289,450
312,825;  321,992;  329,600;  301,450
312,910;  351,092;  343,600;  278,450
312,995;  446,693;  443,600;  325,450
313,080; 2162,192; 2082,600;  265,450
313,165; 2170,792; 2149,600;  310,450
313,250;  350,092;  308,600;  276,450
313,335;  311,392;  321,600;  307,450
313,419;  281,492;  269,600;  242,450
313,504;  323,793;  304,600;  286,450
313,589;  305,092;  272,600;  277,450
313,674;  307,092;  303,600;  290,450
313,759;  284,992;  274,600;  273,450
313,844;  297,892;  276,600;  289,450
313,929;  291,492;  295,600;  285,450
314,014;  322,293;  307,600;  320,450
314,098;  297,992;  321,600;  305,450
314,183;  264,293;  258,600;  260,450
314,268;  301,793;  295,600;  290,450
314,353;  310,992;  287,600;  290,450
314,438;  311,793;  287,600;  294,450
314,522;  304,693;  272,600;  306,450
314,607;  309,092;  282,600;  302,450
314,692;  296,092;  291,600;  301,450
314,777;  298,992;  291,600;  279,450
314,861;  294,193;  293,600;  263,450
314,946;  317,392;  321,600;  303,450
315,031;  298,892;  284,600;  267,450
315,115;  312,193;  309,600;  318,450
315,200;  319,392;  301,600;  285,450
315,285;  298,092;  278,600;  275,450
315,369;  294,693;  282,600;  273,450
315,454;  309,693;  291,600;  305,450
315,539;  303,193;  280,600;  283,450
315,623;  306,193;  308,600;  292,450
315,708;  334,793;  326,600;  315,450
315,793;  290,992;  318,600;  308,450
315,877;  303,092;  311,600;  282,450
315,962;  291,293;  263,600;  283,450
316,046;  303,992;  327,600;  298,450
316,131;  325,693;  334,600;  313,450
316,216;  308,392;  308,600;  288,450
316,300;  298,293;  307,600;  281,450
316,385;  320,693;  301,600;  319,450
316,469;  323,693;  335,600;  331,450
316,554;  297,892;  290,600;  288,450
316,638;  295,293;  297,600;  286,450
316,723;  296,092;  285,600;  262,450
316,807;  287,092;  268,600;  273,450
316,892;  284,092;  293,600;  275,450
316,976;  305,793;  298,600;  318,450
317,061;  306,592;  282,600;  309,450
317,145;  327,992;  316,600;  315,450
317,230;  320,092;  309,600;  304,450
317,314;  280,492;  264,600;  259,450
317,398;  318,693;  280,600;  323,450
317,483;  277,492;  312,600;  266,450
317,567;  311,492;  299,600;  317,450
317,652;  268,193;  280,600;  244,450
317,736;  311,293;  277,600;  329,450
317,820;  323,492;  343,600;  287,450
317,905;  306,592;  311,600;  289,450
317,989;  302,793;  303,600;  312,450
318,073;  294,492;  281,600;  280,450
318,158;  283,293;  262,600;  284,450
318,242;  286,793;  297,600;  269,450
318,326;  284,693;  265,600;  260,450
318,411;  297,992;  263,600;  290,450
318,495;  287,193;  274,600;  286,450
318,579;  290,992;  264,600;  266,450
318,664;  286,793;  284,600;  242,450
318,748;  294,193;  290,600;  266,450
318,832;  282,092;  261,600;  263,450
318,916;  270,693;  272,600;  263,450
319,001;  300,693;  287,600;  299,450
319,085;  288,693;  265,600;  265,450
319,169;  287,092;  304,600;  285,450
319,253;  285,293;  270,600;  271,450
319,337;  303,992;  311,600;  265,450
319,422;  308,793;  329,600;  325,450
319,506;  273,293;  282,600;  264,450
319,590;  308,193;  303,600;  320,450
319,674;  292,992;  326,600;  301,450
319,758;  296,193;  277,600;  278,450
319,842;  302,492;  280,600;  290,450
319,926;  291,793;  268,600;  280,450
320,010;  265,293;  267,600;  226,450
320,095;  284,992;  284,600;  274,450
320,179;  278,392;  270,600;  263,450
320,263;  296,293;  259,600;  265,450
320,347;  269,392;  217,600;  260,450
320,431;  270,092;  267,600;  245,450
320,515;  286,992;  297,600;  267,450
320,599;  263,592;  274,600;  263,450
320,683;  308,293;  295,600;  306,450
320,767;  257,693;  246,600;  230,450
320,851;  283,092;  247,600;  282,450
320,935;  311,193;  294,600;  317,450
321,019;  299,193;  258,600;  297,450
321,103;  271,592;  319,600;  295,450
321,187;  260,293;  272,600;  303,450
321,271;  281,693;  299,600;  251,450
321,355;  284,793;  290,600;  264,450
321,439;  302,992;  282,600;  306,450
321,523;  286,793;  285,600;  287,450
321,606;  287,492;  289,600;  301,450
321,690;  288,693;  285,600;  261,450
321,774;  291,793;  284,600;  286,450
321,858;  290,492;  300,600;  283,450
321,942;  294,892;  298,600;  291,450
322,026;  287,193;  296,600;  280,450
322,110;  285,392;  286,600;  264,450
322,194;  295,392;  279,600;  293,450
322,277;  284,892;  287,600;  257,450
322,361;  277,693;  260,600;  265,450
322,445;  283,392;  285,600;  252,450
322,529;  297,992;  298,600;  264,450
322,613;  285,892;  273,600;  262,450
322,696;  254,492;  287,600;  266,450
322,780;  279,693;  303,600;  256,450
322,864;  267,492;  310,600;  288,450
322,948;  288,293;  262,600;  270,450
323,031;  278,092;  268,600;  269,450
323,115;  281,892;  299,600;  257,450
323,199;  297,193;  291,600;  268,450
323,282;  304,892;  284,600;  302,450
323,366;  285,092;  280,600;  307,450
323,450;  266,092;  241,600;  266,450
323,533;  313,693;  309,600;  308,450
323,617;  265,392;  243,600;  238,450
323,701;  281,193;  239,600;  257,450
323,784;  290,793;  305,600;  289,450
323,868;  286,592;  302,600;  285,450
323,952;  291,293;  276,600;  272,450
324,035;  297,293;  295,600;  297,450
324,119;  293,693;  285,600;  262,450
324,202;  285,892;  280,600;  298,450
324,286;  281,193;  236,600;  286,450
324,370;  305,492;  291,600;  274,450
324,453;  293,592;  287,600;  296,450
324,537;  284,492;  280,600;  281,450
324,620;  282,693;  295,600;  303,450
324,704;  265,193;  281,600;  261,450
324,787;  285,193;  295,600;  267,450
324,871;  297,793;  293,600;  314,450
324,954;  311,592;  299,600;  318,450
325,038;  305,693;  299,600;  301,450
325,121;  305,592;  302,600;  316,450
325,205;  278,193;  273,600;  277,450
325,288;  275,092;  280,600;  269,450
325,371;  291,392;  275,600;  285,450
325,455;  314,092;  289,600;  302,450
325,538;  281,892;  292,600;  308,450
325,622;  318,492;  302,600;  306,450
325,705;  292,793;  303,600;  300,450
325,788;  329,092;  297,600;  298,450
325,872;  297,293;  264,600;  279,450
325,955;  311,492;  305,600;  300,450
326,039;  309,992;  290,600;  313,450
326,122;  311,693;  277,600;  288,450
326,205;  311,392;  320,600;  299,450
326,289;  320,693;  313,600;  313,450
326,372;  294,492;  310,600;  288,450
326,455;  318,793;  322,600;  318,450
326,538;  304,793;  312,600;  306,450
326,622;  321,293;  285,600;  313,450
326,705;  281,892;  272,600;  290,450
326,788;  322,592;  288,600;  324,450
326,871;  314,492;  286,600;  281,450
326,955;  317,592;  293,600;  333,450
327,038;  296,592;  304,600;  284,450
327,121;  303,793;  313,600;  303,450
327,204;  317,193;  315,600;  298,450
327,288;  334,293;  326,600;  328,450
327,371;  297,392;  286,600;  294,450
327,454;  321,892;  303,600;  316,450
327,537;  296,492;  272,600;  285,450
327,620;  332,793;  327,600;  309,450
327,703;  307,992;  308,600;  314,450
327,786;  302,892;  320,600;  319,450
327,870;  327,693;  321,600;  308,450
327,953;  303,992;  307,600;  296,450
328,036;  294,092;  291,600;  264,450
328,119;  320,092;  345,600;  299,450
328,202;  305,992;  305,600;  287,450
328,285;  327,793;  336,600;  306,450
328,368;  320,293;  335,600;  328,450
328,451;  311,793;  325,600;  334,450
328,534;  306,293;  292,600;  283,450
328,617;  301,793;  290,600;  281,450
328,700;  323,793;  325,600;  327,450
328,783;  312,293;  319,600;  292,450
328,866;  314,392;  294,600;  287,450
328,949;  319,092;  341,600;  325,450
329,032;  304,992;  292,600;  308,450
329,115;  289,693;  288,600;  279,450
329,198;  272,592;  265,600;  282,450
329,281;  301,293;  310,600;  277,450
329,364;  314,992;  300,600;  330,450
329,447;  306,392;  303,600;  300,450
329,530;  327,092;  321,600;  317,450
329,613;  303,193;  302,600;  289,450
329,696;  334,492;  308,600;  298,450
329,778;  308,392;  313,600;  293,450
329,861;  294,193;  309,600;  288,450
329,944;  323,793;  326,600;  272,450
330,027;  310,193;  312,600;  296,450
330,110;  303,892;  305,600;  313,450
330,193;  298,392;  284,600;  300,450
330,275;  305,592;  290,600;  298,450
330,358;  289,293;  278,600;  298,450
330,441;  322,693;  307,600;  326,450
330,524;  309,592;  322,600;  298,450
330,607;  293,592;  281,600;  304,450
330,689;  308,392;  278,600;  321,450
330,772;  303,092;  290,600;  305,450
330,855;  314,293;  329,600;  287,450
330,938;  313,492;  332,600;  319,450
331,020;  310,492;  298,600;  292,450
331,103;  287,693;  280,600;  310,450
331,186;  297,293;  298,600;  286,450
331,268;  298,392;  280,600;  269,450
331,351;  309,193;  285,600;  311,450
331,434;  310,992;  296,600;  316,450
331,516;  322,092;  313,600;  329,450
331,599;  297,092;  266,600;  255,450
331,682;  314,193;  301,600;  302,450
331,764;  295,293;  308,600;  261,450
331,847;  320,392;  311,600;  310,450
331,929;  287,293;  286,600;  278,450
332,012;  306,592;  296,600;  295,450
332,095;  318,992;  348,600;  317,450
332,177;  324,793;  353,600;  324,450
332,260;  320,693;  349,600;  345,450
332,342;  307,592;  310,600;  291,450
332,425;  301,892;  301,600;  293,450
332,507;  305,892;  239,600;  316,450
332,590;  276,092;  274,600;  280,450
332,672;  281,293;  310,600;  264,450
332,755;  320,892;  320,600;  233,450
332,837;  303,193;  286,600;  274,450
332,920;  313,392;  315,600;  298,450
333,002;  329,592;  308,600;  306,450
333,085;  305,892;  308,600;  298,450
333,167;  296,293;  275,600;  266,450
333,249;  297,693;  276,600;  277,450
333,332;  284,293;  275,600;  279,450
333,414;  299,492;  317,600;  295,450
333,497;  296,392;  315,600;  305,450
333,579;  299,793;  303,600;  307,450
333,661;  317,092;  319,600;  286,450
333,744;  295,492;  265,600;  243,450
333,826;  318,892;  302,600;  293,450
333,908;  311,592;  329,600;  332,450
333,991;  302,892;  253,600;  285,450
334,073;  475,092;  503,600;  321,450
334,155;  351,392;  360,600;  289,450
334,238;  326,693;  314,600;  286,450
334,320;  296,592;  296,600;  270,450
334,402;  306,092;  298,600;  292,450
334,485;  305,392;  305,600;  282,450
334,567;  304,193;  301,600;  262,450
334,649;  270,293;  266,600;  273,450
334,731;  311,492;  287,600;  285,450
334,813;  321,092;  346,600;  352,450
334,896;  298,092;  296,600;  287,450
334,978;  313,293;  302,600;  283,450
335,060;  303,892;  306,600;  296,450
335,142;  291,392;  265,600;  306,450
335,224;  303,793;  308,600;  310,450
335,307;  295,892;  277,600;  275,450
335,389;  315,492;  302,600;  315,450
335,471;  305,193;  300,600;  282,450
335,553;  308,693;  308,600;  317,450
335,635;  307,492;  303,600;  277,450
335,717;  287,693;  280,600;  305,450
335,799;  313,793;  314,600;  325,450
335,881;  272,992;  271,600;  251,450
335,963;  291,592;  283,600;  278,450
336,045;  294,193;  281,600;  276,450
336,128;  276,092;  281,600;  268,450
336,210;  285,492;  284,600;  250,450
336,292;  298,293;  301,600;  283,450
336,374;  306,793;  307,600;  287,450
336,456;  291,992;  290,600;  258,450
336,538;  299,492;  288,600;  304,450
336,620;  309,492;  325,600;  305,450
336,702;  285,193;  308,600;  309,450
336,783;  292,992;  299,600;  289,450
336,865;  300,592;  302,600;  303,450
336,947;  309,892;  299,600;  302,450
337,029;  271,293;  252,600;  262,450
337,111;  317,392;  309,600;  328,450
337,193;  287,092;  257,600;  250,450
337,275;  305,392;  302,600;  291,450
337,357;  318,793;  299,600;  305,450
337,439;  303,392;  299,600;  277,450
337,521;  286,092;  274,600;  268,450
337,602;  293,892;  280,600;  295,450
337,684;  310,092;  302,600;  341,450
337,766;  308,092;  301,600;  288,450
337,848;  302,592;  309,600;  318,450
337,930;  308,092;  300,600;  300,450
338,012;  297,693;  257,600;  295,450
338,093;  311,892;  302,600;  312,450
338,175;  316,092;  308,600;  308,450
338,257;  308,892;  296,600;  243,450
338,339;  301,592;  303,600;  248,450
338,420;  304,492;  304,600;  329,450
338,502;  296,193;  292,600;  292,450
338,584;  281,092;  261,600;  270,450
338,666;  304,293;  293,600;  301,450
338,747;  330,092;  337,600;  324,450
338,829;  305,293;  301,600;  300,450
338,911;  300,193;  281,600;  284,450
338,992;  286,193;  292,600;  299,450
339,074;  306,492;  300,600;  274,450
339,156;  301,193;  308,600;  302,450
339,237;  328,492;  344,600;  320,450
339,319;  297,693;  298,600;  284,450
339,400;  311,693;  301,600;  313,450
339,482;  272,492;  291,600;  259,450
339,564;  312,392;  337,600;  315,450
339,645;  309,092;  283,600;  306,450
339,727;  287,193;  284,600;  278,450
339,808;  310,392;  306,600;  320,450
339,890;  299,492;  285,600;  277,450
339,971;  306,592;  318,600;  299,450
340,053;  333,793;  327,600;  339,450
340,134;  291,092;  287,600;  283,450
340,216;  314,392;  294,600;  302,450
340,297;  287,492;  330,600;  312,450
340,379;  309,492;  344,600;  301,450
340,460;  303,992;  275,600;  299,450
340,542;  287,492;  307,600;  263,450
340,623;  308,592;  306,600;  325,450
340,705;  284,892;  306,600;  262,450
340,786;  292,092;  299,600;  288,450
340,868;  307,992;  299,600;  313,450
340,949;  276,793;  279,600;  269,450
341,030;  315,293;  330,600;  312,450
341,112;  271,793;  256,600;  269,450
341,193;  260,293;  287,600;  248,450
341,274;  313,592;  325,600;  312,450
341,356;  303,492;  329,600;  300,450
341,437;  298,392;  292,600;  284,450
341,518;  308,092;  313,600;  322,450
341,600;  315,992;  321,600;  324,450
341,681;  323,992;  316,600;  308,450
341,762;  327,793;  316,600;  314,450
341,844;  284,992;  271,600;  280,450
341,925;  311,193;  304,600;  329,450
342,006;  315,992;  314,600;  322,450
342,087;  286,293;  291,600;  308,450
342,169;  296,793;  301,600;  297,450
342,250;  285,592;  303,600;  250,450
342,331;  296,793;  291,600;  268,450
342,412;  309,092;  304,600;  283,450
342,493;  285,492;  279,600;  266,450
342,575;  324,992;  298,600;  308,450
342,656;  320,992;  343,600;  319,450
342,737;  326,892;  331,600;  316,450
342,818;  300,392;  319,600;  291,450
342,899;  307,793;  309,600;  295,450
342,980;  304,892;  306,600;  302,450
343,061;  291,892;  297,600;  279,450
343,143;  310,892;  299,600;  310,450
343,224;  301,293;  297,600;  287,450
343,305;  292,092;  294,600;  273,450
343,386;  301,293;  290,600;  295,450
343,467;  297,793;  306,600;  295,450
343,548;  295,693;  307,600;  271,450
343,629;  313,392;  348,600;  311,450
343,710;  321,793;  354,600;  330,450
343,791;  320,592;  296,600;  295,450
343,872;  296,092;  314,600;  271,450
343,953;  313,793;  323,600;  303,450
344,034;  315,793;  307,600;  307,450
344,115;  306,293;  298,600;  295,450
344,196;  295,092;  295,600;  273,450
344,277;  297,892;  282,600;  299,450
344,358;  297,392;  279,600;  295,450
344,439;  287,092;  281,600;  287,450
344,520;  281,592;  310,600;  269,450
344,601;  306,592;  319,600;  332,450
344,681;  301,392;  312,600;  315,450
344,762;  281,193;  275,600;  257,450
344,843;  274,092;  300,600;  255,450
344,924;  313,492;  252,600;  290,450
345,005;  288,992;  269,600;  286,450
345,086;  303,193;  301,600;  289,450
345,167;  300,193;  299,600;  282,450
345,247;  329,892;  305,600;  327,450
345,328;  311,793;  287,600;  317,450
345,409;  305,892;  280,600;  307,450
345,490;  306,193;  314,600;  310,450
345,571;  311,892;  293,600;  295,450
345,651;  283,892;  260,600;  335,450
345,732;  309,392;  303,600;  286,450
345,813;  320,992;  285,600;  291,450
345,894;  287,992;  254,600;  279,450
345,974;  307,092;  346,600;  305,450
346,055;  285,693;  275,600;  291,450
346,136;  305,092;  311,600;  287,450
346,216;  328,793;  312,600;  345,450
346,297;  303,092;  294,600;  289,450
346,378;  290,793;  270,600;  300,450
346,458;  312,092;  299,600;  271,450
346,539;  303,793;  295,600;  315,450
346,620;  296,092;  301,600;  312,450
346,700;  298,892;  302,600;  258,450
346,781;  279,193;  252,600;  260,450
346,861;  300,693;  283,600;  301,450
346,942;  302,492;  273,600;  319,450
347,023;  321,492;  302,600;  306,450
347,103;  296,392;  296,600;  287,450
347,184;  289,492;  321,600;  294,450
347,264;  288,293;  289,600;  310,450
347,345;  287,293;  280,600;  281,450
347,425;  286,592;  270,600;  295,450
347,506;  285,392;  283,600;  283,450
347,586;  298,892;  258,600;  283,450
347,667;  301,293;  316,600;  299,450
347,747;  304,492;  307,600;  304,450
347,828;  297,293;  308,600;  271,450
347,908;  313,892;  307,600;  307,450
347,988;  294,092;  296,600;  251,450
348,069;  307,793;  295,600;  305,450
348,149;  294,693;  303,600;  276,450
348,230;  316,492;  297,600;  301,450
348,310;  291,892;  291,600;  301,450
348,390;  287,293;  285,600;  267,450
348,471;  308,793;  299,600;  270,450
348,551;  288,592;  289,600;  264,450
348,632;  287,793;  288,600;  278,450
348,712;  284,392;  281,600;  278,450
348,792;  326,892;  352,600;  333,450
348,873;  277,492;  293,600;  249,450
348,953;  288,793;  278,600;  330,450
349,033;  297,793;  285,600;  311,450
349,113;  283,693;  278,600;  277,450
349,194;  312,492;  289,600;  310,450
349,274;  298,092;  300,600;  310,450
349,354;  307,793;  288,600;  285,450
349,434;  293,693;  300,600;  299,450
349,515;  317,492;  310,600;  320,450
349,595;  307,793;  308,600;  287,450
349,675;  313,193;  289,600;  299,450
349,755;  298,592;  325,600;  280,450
349,835;  304,092;  305,600;  309,450
349,916;  291,592;  298,600;  284,450
349,996;  287,793;  287,600;  253,450
350,076;  320,892;  286,600;  315,450
350,156;  284,992;  272,600;  280,450
350,236;  312,892;  292,600;  316,450
350,316;  289,092;  296,600;  282,450
350,396;  305,492;  283,600;  306,450
350,476;  302,793;  308,600;  275,450
350,556;  295,693;  275,600;  290,450
350,637;  317,693;  331,600;  312,450
350,717;  291,793;  269,600;  287,450
350,797;  307,693;  307,600;  305,450
350,877;  283,193;  305,600;  323,450
350,957;  303,092;  285,600;  291,450
351,037;  307,693;  303,600;  298,450
351,117;  301,092;  304,600;  275,450
351,197;  295,793;  331,600;  302,450
351,277;  307,592;  328,600;  277,450
351,357;  311,592;  322,600;  293,450
351,437;  310,693;  299,600;  283,450
351,516;  311,693;  337,600;  283,450
351,596;  279,892;  291,600;  329,450
351,676;  285,793;  269,600;  284,450
351,756;  328,793;  308,600;  326,450
351,836;  307,193;  285,600;  329,450
351,916;  296,793;  324,600;  287,450
351,996;  303,092;  313,600;  318,450
352,076;  293,392;  288,600;  302,450
352,156;  312,293;  317,600;  297,450
352,235;  301,092;  310,600;  304,450
352,315;  305,592;  313,600;  339,450
352,395;  312,193;  306,600;  277,450
352,475;  318,793;  339,600;  287,450
352,555;  323,793;  362,600;  344,450
352,634;  317,092;  304,600;  344,450
352,714;  298,092;  310,600;  263,450
352,794;  352,592;  334,600;  364,450
352,874;  312,693;  335,600;  339,450
352,953;  327,293;  336,600;  318,450
353,033;  311,892;  317,600;  344,450
353,113;  332,693;  360,600;  341,450
353,193;  315,892;  314,600;  334,450
353,272;  333,892;  295,600;  329,450
353,352;  309,693;  303,600;  275,450
353,432;  348,693;  324,600;  344,450
353,511;  334,892;  323,600;  302,450
353,591;  355,293;  352,600;  347,450
353,671;  326,592;  335,600;  320,450
353,750;  335,293;  311,600;  311,450
353,830;  317,592;  319,600;  296,450
353,909;  330,092;  335,600;  341,450
353,989;  315,592;  309,600;  297,450
354,069;  312,592;  315,600;  318,450
354,148;  330,693;  341,600;  323,450
354,228;  307,492;  315,600;  300,450
354,307;  330,793;  313,600;  312,450
354,387;  321,293;  316,600;  326,450
354,466;  318,092;  319,600;  299,450
354,546;  336,992;  314,600;  347,450
354,625;  315,193;  341,600;  324,450
354,705;  316,992;  272,600;  330,450
354,784;  312,693;  301,600;  303,450
354,864;  312,992;  309,600;  305,450
354,943;  333,992;  340,600;  339,450
355,023;  303,592;  288,600;  314,450
355,102;  358,392;  337,600;  333,450
355,181;  322,392;  328,600;  329,450
355,261;  337,992;  314,600;  344,450
355,340;  313,992;  301,600;  307,450
355,420;  342,892;  325,600;  327,450
355,499;  326,193;  294,600;  326,450
355,578;  317,492;  321,600;  324,450
355,658;  335,492;  310,600;  346,450
355,737;  323,892;  312,600;  309,450
355,816;  314,992;  330,600;  333,450
355,896;  312,992;  300,600;  301,450
355,975;  295,092;  308,600;  294,450
356,054;  312,392;  316,600;  285,450
356,133;  290,193;  287,600;  314,450
356,213;  315,392;  318,600;  292,450
356,292;  304,193;  297,600;  276,450
356,371;  320,892;  331,600;  297,450
356,451;  330,092;  345,600;  294,450
356,530;  350,492;  357,600;  319,450
356,609;  307,793;  306,600;  286,450
356,688;  319,793;  314,600;  298,450
356,767;  309,492;  299,600;  290,450
356,846;  322,992;  346,600;  295,450
356,926;  339,992;  342,600;  361,450
357,005;  313,793;  332,600;  321,450
357,084;  301,992;  318,600;  321,450
357,163;  319,092;  335,600;  341,450
357,242;  323,793;  286,600;  337,450
357,321;  313,293;  322,600;  296,450
357,400;  311,392;  305,600;  310,450
357,479;  308,492;  336,600;  292,450
357,559;  334,492;  325,600;  314,450
357,638;  293,492;  312,600;  292,450
357,717;  316,193;  322,600;  304,450
357,796;  319,592;  348,600;  323,450
357,875;  310,193;  333,600;  316,450
357,954;  309,693;  312,600;  285,450
358,033;  324,793;  311,600;  278,450
358,112;  330,293;  302,600;  300,450
358,191;  317,892;  313,600;  289,450
358,270;  298,492;  266,600;  300,450
358,349;  321,293;  291,600;  324,450
358,428;  327,092;  321,600;  335,450
358,507;  322,193;  348,600;  306,450
358,585;  318,992;  318,600;  326,450
358,664;  339,592;  318,600;  340,450
358,743;  302,892;  293,600;  304,450
358,822;  332,392;  354,600;  329,450
358,901;  312,092;  275,600;  303,450
358,980;  319,392;  308,600;  299,450
359,059;  325,293;  326,600;  326,450
359,138;  326,092;  308,600;  324,450
359,216;  335,092;  320,600;  314,450
359,295;  310,592;  325,600;  329,450
359,374;  337,492;  335,600;  301,450
359,453;  324,092;  340,600;  315,450
359,532;  307,892;  307,600;  310,450
359,610;  322,293;  315,600;  307,450
359,689;  328,092;  324,600;  330,450
359,768;  312,592;  305,600;  294,450
359,847;  303,293;  313,600;  287,450
359,925;  306,193;  303,600;  315,450
360,004;  297,293;  295,600;  289,450
360,083;  316,992;  299,600;  319,450
360,161;  308,793;  314,600;  285,450
360,240;  282,892;  272,600;  289,450
360,319;  309,092;  323,600;  309,450
360,397;  321,492;  313,600;  320,450
360,476;  318,693;  291,600;  325,450
360,555;  344,793;  334,600;  340,450
360,633;  299,892;  287,600;  300,450
360,712;  302,293;  299,600;  264,450
360,790;  329,693;  314,600;  320,450
360,869;  306,793;  297,600;  296,450
360,948;  316,492;  278,600;  334,450
361,026;  292,693;  321,600;  276,450
361,105;  308,592;  305,600;  290,450
361,183;  323,992;  294,600;  286,450
361,262;  301,492;  300,600;  280,450
361,340;  315,193;  318,600;  297,450
361,419;  286,992;  282,600;  250,450
361,497;  344,092;  300,600;  335,450
361,576;  316,592;  292,600;  315,450
361,654;  344,492;  361,600;  322,450
361,733;  304,492;  320,600;  300,450
361,811;  319,892;  320,600;  311,450
361,890;  296,592;  267,600;  289,450
361,968;  310,392;  269,600;  303,450
362,046;  338,492;  334,600;  321,450
362,125;  334,693;  353,600;  326,450
362,203;  319,193;  297,600;  287,450
362,282;  335,092;  319,600;  338,450
362,360;  319,992;  296,600;  307,450
362,438;  315,793;  310,600;  302,450
362,517;  357,293;  346,600;  347,450
362,595;  329,293;  312,600;  351,450
362,673;  342,793;  323,600;  317,450
362,752;  324,793;  349,600;  327,450
362,830;  330,193;  338,600;  349,450
362,908;  311,693;  310,600;  307,450
362,986;  334,793;  335,600;  315,450
363,065;  324,992;  313,600;  344,450
363,143;  362,592;  354,600;  367,450
363,221;  318,992;  302,600;  288,450
363,299;  309,392;  304,600;  309,450
363,378;  323,693;  297,600;  335,450
363,456;  307,193;  286,600;  316,450
363,534;  325,892;  318,600;  323,450
363,612;  328,293;  320,600;  312,450
363,690;  345,693;  319,600;  344,450
363,769;  360,992;  340,600;  345,450
363,847;  341,092;  308,600;  356,450
363,925;  310,392;  282,600;  303,450
364,003;  350,592;  343,600;  348,450
364,081;  340,492;  323,600;  338,450
364,159;  337,992;  325,600;  330,450
364,237;  342,793;  351,600;  326,450
364,315;  323,092;  306,600;  311,450
364,393;  364,592;  363,600;  340,450
364,471;  341,892;  345,600;  315,450
364,549;  343,092;  344,600;  337,450
364,627;  358,092;  339,600;  321,450
364,705;  370,793;  344,600;  299,450
364,783;  426,992;  417,600;  294,450
364,861; 1019,093; 1050,600;  311,450
364,939; 3589,992; 3619,600;  304,450
365,017;  763,992;  723,600;  298,450
365,095;  376,693;  341,600;  327,450
365,173;  370,392;  398,600;  335,450
365,251;  391,892;  356,600;  345,450
365,329;  540,393;  527,600;  344,450
365,407; 1181,493; 1155,600;  315,450
365,485;  457,492;  464,600;  377,450
365,563;  360,592;  354,600;  339,450
365,641;  348,092;  327,600;  316,450
365,719;  351,592;  361,600;  314,450
365,796;  344,592;  329,600;  309,450
365,874;  353,793;  329,600;  354,450
365,952;  318,793;  334,600;  297,450
366,030;  339,592;  311,600;  318,450
366,108;  364,592;  336,600;  325,450
366,185;  637,893;  644,600;  330,450
366,263;  898,193;  880,600;  333,450
366,341;  374,693;  362,600;  310,450
366,419;  349,092;  335,600;  319,450
366,496;  338,892;  347,600;  336,450
366,574;  336,392;  299,600;  321,450
366,652;  361,992;  381,600;  324,450
366,730;  369,992;  336,600;  375,450
366,807;  331,793;  317,600;  335,450
366,885;  323,392;  315,600;  340,450
366,963;  330,492;  305,600;  332,450
367,040;  347,492;  348,600;  348,450
367,118;  326,492;  315,600;  299,450
367,196;  348,592;  322,600;  355,450
367,273;  339,793;  331,600;  352,450
367,351;  335,392;  314,600;  320,450
367,428;  357,293;  351,600;  360,450
367,506;  335,193;  361,600;  305,450
367,584;  364,892;  352,600;  377,450
367,661;  337,392;  329,600;  332,450
367,739;  330,392;  328,600;  328,450
367,816;  323,193;  343,600;  292,450
367,894;  334,492;  368,600;  312,450
367,971;  339,193;  309,600;  328,450
368,049;  363,693;  376,600;  316,450
368,126;  320,793;  329,600;  318,450
368,204;  354,892;  333,600;  342,450
368,281;  355,092;  375,600;  360,450
368,359;  350,693;  352,600;  332,450
368,436;  347,492;  349,600;  336,450
368,514;  342,793;  344,600;  337,450
368,591;  343,592;  344,600;  347,450
368,668;  355,293;  375,600;  336,450
368,746;  359,492;  387,600;  352,450
368,823;  347,492;  338,600;  380,450
368,901;  337,693;  325,600;  328,450
368,978;  359,293;  329,600;  311,450
369,055;  336,293;  339,600;  332,450
369,133;  368,892;  371,600;  352,450
369,210;  333,193;  328,600;  366,450
369,287;  369,293;  364,600;  366,450
369,365;  369,092;  380,600;  367,450
369,442;  349,193;  347,600;  350,450
369,519;  317,492;  321,600;  298,450
369,596;  374,492;  359,600;  339,450
369,674;  337,392;  327,600;  283,450
369,751;  363,892;  337,600;  371,450
369,828;  351,092;  351,600;  337,450
369,905;  363,892;  358,600;  377,450
369,983;  330,992;  305,600;  327,450
370,060;  336,293;  323,600;  301,450
370,137;  368,392;  394,600;  401,450
370,214;  347,293;  321,600;  374,450
370,291;  343,892;  350,600;  340,450
370,368;  344,793;  356,600;  383,450
370,446;  333,693;  301,600;  350,450
370,523;  333,293;  360,600;  316,450
370,600;  359,392;  368,600;  319,450
370,677;  343,992;  348,600;  332,450
370,754;  335,592;  343,600;  331,450
370,831;  342,793;  352,600;  343,450
370,908;  371,892;  347,600;  374,450
370,985;  325,793;  333,600;  281,450
371,062;  341,793;  341,600;  344,450
371,139;  355,392;  361,600;  363,450
371,216;  358,592;  351,600;  347,450
371,293;  346,793;  329,600;  359,450
371,370;  323,992;  322,600;  314,450
371,447;  354,592;  346,600;  342,450
371,524;  386,592;  346,600;  357,450
371,601;  370,092;  371,600;  341,450
371,678;  381,892;  350,600;  355,450
371,755;  348,592;  366,600;  335,450
371,832;  371,092;  370,600;  375,450
371,909;  340,492;  370,600;  318,450
371,986;  378,392;  371,600;  394,450
372,063;  349,592;  324,600;  329,450
372,140;  359,592;  342,600;  359,450
372,216;  349,992;  356,600;  331,450
372,293;  344,992;  310,600;  347,450
372,370;  371,492;  375,600;  357,450
372,447;  364,693;  329,600;  372,450
372,524;  353,992;  350,600;  371,450
372,601;  353,293;  369,600;  321,450
372,677;  338,592;  344,600;  333,450
372,754;  346,392;  355,600;  360,450
372,831;  360,892;  356,600;  354,450
372,908;  366,592;  380,600;  385,450
372,984;  360,592;  362,600;  356,450
373,061;  342,793;  317,600;  334,450
373,138;  354,392;  367,600;  366,450
373,215;  342,193;  329,600;  317,450
373,291;  347,892;  347,600;  356,450
373,368;  345,892;  378,600;  362,450
373,445;  349,793;  374,600;  345,450
373,521;  357,793;  355,600;  341,450
373,598;  343,392;  354,600;  314,450
373,675;  328,992;  335,600;  358,450
373,751;  345,892;  336,600;  357,450
373,828;  343,892;  338,600;  346,450
373,904;  396,392;  409,600;  394,450
373,981;  324,592;  340,600;  337,450
374,057;  356,693;  343,600;  341,450
374,134;  331,693;  339,600;  316,450
374,211;  357,592;  330,600;  339,450
374,287;  334,793;  336,600;  339,450
374,364;  356,892;  379,600;  370,450
374,440;  317,193;  279,600;  284,450
374,517;  360,592;  367,600;  360,450
374,593;  327,592;  326,600;  299,450
374,670;  341,793;  335,600;  311,450
374,746;  357,892;  347,600;  339,450
374,823;  369,793;  389,600;  364,450
374,899;  370,193;  353,600;  394,450
374,975;  338,092;  336,600;  333,450
375,052;  319,693;  327,600;  327,450
375,128;  329,392;  281,600;  339,450
375,205;  352,492;  346,600;  378,450
375,281;  328,092;  294,600;  331,450
375,357;  373,193;  371,600;  352,450
375,434;  329,293;  313,600;  355,450
375,510;  353,693;  354,600;  323,450
375,586;  352,992;  356,600;  351,450
375,663;  324,092;  314,600;  307,450
375,739;  356,392;  355,600;  380,450
375,815;  341,693;  340,600;  317,450
375,892;  353,592;  340,600;  341,450
375,968;  332,892;  313,600;  325,450
376,044;  336,193;  370,600;  333,450
376,120;  331,592;  311,600;  364,450
376,197;  353,992;  361,600;  328,450
376,273;  336,892;  347,600;  334,450
376,349;  385,992;  386,600;  368,450
376,425;  347,293;  378,600;  336,450
376,501;  351,793;  329,600;  348,450
376,578;  352,392;  332,600;  426,450
376,654;  371,793;  393,600;  365,450
376,730;  360,492;  340,600;  352,450
376,806;  375,193;  346,600;  382,450
376,882;  366,793;  376,600;  332,450
376,958;  371,793;  367,600;  347,450
377,034;  314,992;  320,600;  296,450
377,111;  371,193;  393,600;  358,450
377,187;  395,592;  410,600;  383,450
377,263;  392,592;  397,600;  372,450
377,339;  347,392;  341,600;  319,450
377,415;  371,492;  339,600;  356,450
377,491;  345,693;  362,600;  325,450
377,567;  365,693;  340,600;  369,450
377,643;  380,492;  376,600;  362,450
377,719;  364,092;  368,600;  351,450
377,795;  350,793;  313,600;  350,450
377,871;  378,693;  366,600;  386,450
377,947;  341,693;  343,600;  352,450
378,023;  343,392;  355,600;  339,450
378,099;  342,293;  325,600;  367,450
378,174;  369,293;  364,600;  365,450
378,250;  364,793;  372,600;  389,450
378,326;  366,293;  369,600;  382,450
378,402;  357,492;  359,600;  343,450
378,478;  365,193;  340,600;  355,450
378,554;  377,592;  347,600;  374,450
378,630;  362,693;  369,600;  336,450
378,706;  364,793;  364,600;  321,450
378,781;  399,793;  387,600;  385,450
378,857;  350,793;  359,600;  347,450
378,933;  366,193;  359,600;  335,450
379,009;  359,392;  346,600;  342,450
379,085;  386,492;  419,600;  384,450
379,160;  377,092;  381,600;  366,450
379,236;  373,492;  359,600;  361,450
379,312;  366,193;  337,600;  365,450
379,387;  359,793;  372,600;  349,450
379,463;  362,293;  355,600;  344,450
379,539;  378,193;  408,600;  387,450
379,615;  360,992;  337,600;  364,450
379,690;  399,793;  420,600;  410,450
379,766;  375,992;  389,600;  370,450
379,842;  383,793;  385,600;  366,450
379,917;  386,193;  389,600;  369,450
379,993;  368,793;  370,600;  358,450
380,068;  358,793;  341,600;  349,450
380,144;  382,992;  398,600;  393,450
380,220;  376,293;  388,600;  391,450
380,295;  350,592;  356,600;  356,450
380,371;  361,193;  358,600;  361,450
380,446;  382,592;  418,600;  376,450
380,522;  350,492;  340,600;  360,450
380,597;  353,392;  377,600;  349,450
380,673;  395,992;  395,600;  384,450
380,748;  362,693;  338,600;  344,450
380,824;  370,092;  364,600;  362,450
380,899;  380,693;  371,600;  364,450
380,975;  367,092;  388,600;  402,450
381,050;  349,293;  363,600;  336,450
381,126;  365,193;  370,600;  362,450
381,201;  398,592;  407,600;  405,450
381,277;  373,992;  367,600;  390,450
381,352;  393,892;  389,600;  377,450
381,427;  373,193;  359,600;  370,450
381,503;  381,193;  394,600;  377,450
381,578;  359,392;  363,600;  360,450
381,653;  379,592;  381,600;  387,450
381,729;  350,392;  346,600;  360,450
381,804;  369,992;  373,600;  375,450
381,879;  382,892;  380,600;  366,450
381,955;  352,793;  343,600;  346,450
382,030;  357,992;  346,600;  339,450
382,105;  371,293;  372,600;  372,450
382,181;  365,492;  382,600;  367,450
382,256;  373,592;  373,600;  383,450
382,331;  366,193;  371,600;  375,450
382,406;  343,392;  368,600;  343,450
382,482;  366,693;  371,600;  380,450
382,557;  356,693;  362,600;  335,450
382,632;  370,592;  364,600;  365,450
382,707;  360,592;  393,600;  349,450
382,782;  365,293;  395,600;  385,450
382,857;  357,293;  373,600;  356,450
382,933;  348,892;  354,600;  349,450
383,008;  346,892;  325,600;  336,450
383,083;  369,592;  382,600;  360,450
383,158;  374,193;  375,600;  368,450
383,233;  358,693;  368,600;  362,450
383,308;  362,592;  360,600;  326,450
383,383;  390,992;  394,600;  390,450
383,458;  352,992;  344,600;  340,450
383,533;  341,693;  331,600;  334,450
383,608;  391,392;  367,600;  381,450
383,683;  382,592;  381,600;  367,450
383,758;  375,793;  398,600;  353,450
383,833;  359,092;  343,600;  350,450
383,908;  339,992;  321,600;  367,450
383,983;  353,293;  365,600;  328,450
384,058;  362,293;  340,600;  383,450
384,133;  364,092;  372,600;  376,450
384,208;  371,892;  395,600;  375,450
384,283;  356,592;  362,600;  321,450
384,358;  391,293;  392,600;  390,450
384,433;  352,793;  347,600;  341,450
384,508;  380,492;  339,600;  338,450
384,583;  371,492;  337,600;  355,450
384,658;  374,992;  352,600;  366,450
384,732;  337,492;  329,600;  319,450
384,807;  363,492;  347,600;  366,450
384,882;  371,592;  391,600;  349,450
384,957;  365,992;  348,600;  345,450
385,032;  372,392;  383,600;  373,450
385,106;  369,492;  342,600;  369,450
385,181;  367,092;  353,600;  359,450
385,256;  368,992;  367,600;  336,450
385,331;  373,193;  375,600;  364,450
385,405;  379,492;  383,600;  400,450
385,480;  368,293;  362,600;  372,450
385,555;  405,793;  402,600;  399,450
385,630;  392,693;  369,600;  370,450
385,704;  374,592;  353,600;  390,450
385,779;  363,092;  363,600;  368,450
385,854;  375,793;  364,600;  380,450
385,928;  365,293;  348,600;  365,450
386,003;  398,793;  390,600;  397,450
386,078;  372,092;  374,600;  369,450
386,152;  395,492;  391,600;  412,450
386,227;  364,392;  347,600;  354,450
386,301;  378,392;  389,600;  348,450
386,376;  346,193;  352,600;  346,450
386,450;  380,592;  356,600;  374,450
386,525;  373,992;  357,600;  376,450
386,600;  385,492;  367,600;  381,450
386,674;  365,492;  374,600;  364,450
386,749;  390,293;  395,600;  359,450
386,823;  371,892;  363,600;  377,450
386,898;  385,392;  386,600;  374,450
386,972;  385,092;  383,600;  354,450
387,047;  368,392;  368,600;  364,450
387,121;  373,293;  375,600;  363,450
387,195;  361,992;  359,600;  352,450
387,270;  382,193;  384,600;  385,450
387,344;  401,892;  429,600;  393,450
387,419;  383,492;  367,600;  412,450
387,493;  375,492;  371,600;  377,450
387,567;  349,092;  351,600;  336,450
387,642;  405,892;  383,600;  402,450
387,716;  377,892;  368,600;  378,450
387,790;  366,592;  337,600;  366,450
387,865;  371,592;  351,600;  364,450
387,939;  403,492;  405,600;  406,450
388,013;  381,892;  377,600;  417,450
388,088;  370,793;  361,600;  363,450
388,162;  374,193;  366,600;  355,450
388,236;  373,693;  381,600;  416,450
388,310;  360,492;  368,600;  361,450
388,385;  399,293;  324,600;  400,450
388,459;  368,793;  362,600;  379,450
388,533;  363,892;  378,600;  365,450
388,607;  368,992;  374,600;  378,450
388,682;  379,492;  369,600;  394,450
388,756;  349,293;  375,600;  378,450
388,830;  382,092;  378,600;  413,450
388,904;  374,793;  382,600;  382,450
388,978;  373,992;  368,600;  361,450
389,052;  366,693;  390,600;  343,450
389,126;  373,092;  353,600;  387,450
389,200;  377,392;  376,600;  362,450
389,275;  369,992;  382,600;  389,450
389,349;  369,392;  405,600;  380,450
389,423;  364,092;  380,600;  369,450
389,497;  385,092;  426,600;  377,450
389,571;  370,992;  391,600;  375,450
389,645;  384,892;  378,600;  388,450
389,719;  371,193;  384,600;  388,450
389,793;  334,293;  341,600;  322,450
389,867;  404,592;  410,600;  386,450
389,941;  386,092;  367,600;  369,450
390,015;  368,892;  348,600;  372,450
390,089;  359,293;  369,600;  344,450
390,163;  369,992;  368,600;  375,450
390,237;  375,293;  356,600;  361,450
390,310;  378,693;  393,600;  366,450
390,384;  383,992;  383,600;  344,450
390,458;  406,293;  414,600;  432,450
390,532;  394,293;  401,600;  395,450
390,606;  366,092;  361,600;  328,450
390,680;  371,392;  354,600;  373,450
390,754;  356,693;  373,600;  342,450
390,827;  385,793;  382,600;  388,450
390,901;  404,293;  362,600;  377,450
390,975;  371,092;  366,600;  368,450
391,049;  363,092;  374,600;  392,450
391,123;  366,693;  342,600;  367,450
391,196;  365,193;  344,600;  368,450
391,270;  379,193;  372,600;  366,450
391,344;  362,492;  384,600;  374,450
391,418;  361,892;  368,600;  366,450
391,491;  350,293;  362,600;  365,450
391,565;  368,092;  341,600;  346,450
391,639;  396,992;  379,600;  381,450
391,712;  383,693;  373,600;  385,450
391,786;  381,293;  401,600;  429,450
391,860;  365,992;  354,600;  354,450
391,933;  365,592;  366,600;  333,450
392,007;  373,992;  393,600;  364,450
392,081;  404,992;  404,600;  366,450
392,154;  389,992;  366,600;  394,450
392,228;  395,492;  392,600;  387,450
392,301;  386,892;  366,600;  402,450
392,375;  388,592;  394,600;  406,450
392,448;  379,492;  397,600;  375,450
392,522;  370,492;  382,600;  383,450
392,595;  379,193;  389,600;  365,450
392,669;  377,492;  386,600;  367,450
392,742;  393,392;  378,600;  401,450
392,816;  401,092;  376,600;  383,450
392,889;  402,693;  392,600;  401,450
392,963;  408,793;  400,600;  382,450
393,036;  385,892;  366,600;  401,450
393,110;  394,293;  388,600;  376,450
393,183;  409,592;  407,600;  399,450
393,257;  417,092;  437,600;  408,450
393,330;  373,793;  373,600;  391,450
393,403;  382,992;  410,600;  372,450
393,477;  351,992;  347,600;  364,450
393,550;  382,092;  413,600;  387,450
393,623;  388,892;  374,600;  402,450
393,697;  402,392;  404,600;  411,450
393,770;  390,992;  386,600;  364,450
393,843;  404,092;  419,600;  412,450
393,917;  390,293;  400,600;  407,450
393,990;  410,992;  378,600;  395,450
394,063;  394,592;  403,600;  375,450
394,136;  387,392;  390,600;  390,450
394,210;  398,392;  393,600;  380,450
394,283;  405,592;  385,600;  395,450
394,356;  400,293;  410,600;  373,450
394,429;  396,892;  399,600;  357,450
394,502;  395,392;  404,600;  373,450
394,576;  411,193;  416,600;  404,450
394,649;  378,992;  376,600;  381,450
394,722;  395,992;  390,600;  390,450
394,795;  410,592;  413,600;  406,450
394,868;  388,592;  369,600;  390,450
394,941;  371,693;  371,600;  368,450
395,014;  413,392;  419,600;  416,450
395,088;  389,892;  404,600;  391,450
395,161;  396,892;  402,600;  399,450
395,234;  406,492;  390,600;  397,450
395,307;  401,793;  413,600;  388,450
395,380;  388,892;  393,600;  392,450
395,453;  432,392;  439,600;  425,450
395,526;  410,293;  430,600;  407,450
395,599;  421,193;  422,600;  432,450
395,672;  393,092;  378,600;  408,450
395,745;  419,693;  400,600;  390,450
395,818;  373,193;  385,600;  376,450
395,891;  390,793;  408,600;  379,450
395,964;  406,492;  398,600;  436,450
396,036;  385,693;  400,600;  390,450
396,109;  386,592;  399,600;  381,450
396,182;  393,892;  392,600;  382,450
396,255;  394,092;  417,600;  383,450
396,328;  413,793;  412,600;  432,450
396,401;  355,592;  363,600;  381,450
396,474;  389,392;  399,600;  360,450
396,547;  394,492;  411,600;  417,450
396,619;  393,793;  384,600;  393,450
396,692;  409,693;  371,600;  354,450
396,765;  367,592;  375,600;  376,450
396,838;  387,492;  367,600;  390,450
396,911;  367,693;  363,600;  352,450
396,983;  387,992;  385,600;  396,450
397,056;  359,293;  375,600;  367,450
397,129;  386,293;  369,600;  368,450
397,201;  387,492;  413,600;  395,450
397,274;  384,092;  379,600;  382,450
397,347;  358,592;  364,600;  378,450
397,420;  390,992;  373,600;  379,450
397,492;  394,892;  404,600;  380,450
397,565;  374,793;  372,600;  365,450
397,637;  366,092;  371,600;  361,450
397,710;  352,992;  349,600;  341,450
397,783;  410,992;  444,600;  401,450
397,855;  341,992;  363,600;  346,450
397,928;  371,392;  381,600;  330,450
398,000;  395,293;  369,600;  384,450
398,073;  394,693;  376,600;  372,450
398,146;  379,092;  365,600;  358,450
398,218;  392,793;  417,600;  363,450
398,291;  382,092;  398,600;  385,450
398,363;  380,293;  370,600;  358,450
398,436;  363,293;  369,600;  360,450
398,508;  377,793;  378,600;  369,450
398,581;  382,793;  368,600;  367,450
398,653;  380,592;  318,600;  382,450
398,726;  381,592;  376,600;  371,450
398,798;  385,092;  390,600;  376,450
398,870;  395,392;  374,600;  374,450
398,943;  363,092;  371,600;  357,450
399,015;  368,492;  362,600;  383,450
399,088;  383,392;  377,600;  373,450
399,160;  368,193;  370,600;  348,450
399,232;  359,092;  332,600;  349,450
399,305;  366,293;  379,600;  362,450
399,377;  380,793;  350,600;  343,450
399,449;  378,293;  398,600;  388,450
399,522;  419,992;  442,600;  416,450
399,594;  360,293;  359,600;  346,450
399,666;  380,892;  393,600;  361,450
399,738;  375,092;  378,600;  375,450
399,811;  377,293;  370,600;  388,450
399,883;  390,193;  392,600;  378,450
399,955;  394,992;  429,600;  331,450
400,027;  355,092;  342,600;  364,450
400,100;  406,092;  402,600;  427,450
400,172;  354,492;  360,600;  354,450
400,244;  370,293;  369,600;  361,450
400,316;  399,592;  396,600;  381,450
400,388;  390,293;  408,600;  368,450
400,460;  365,793;  350,600;  359,450
400,532;  344,092;  329,600;  337,450
400,605;  375,592;  378,600;  368,450
400,677;  399,392;  389,600;  380,450
400,749;  392,492;  403,600;  406,450
400,821;  385,193;  384,600;  385,450
400,893;  369,293;  364,600;  384,450
400,965;  382,793;  390,600;  380,450
401,037;  384,193;  376,600;  402,450
401,109;  364,892;  363,600;  365,450
401,181;  371,293;  383,600;  398,450

