medidas estadistica_lampara_20250617
Integration time [ms]:   0,150
Averaging Nr. [scans]: 1
Smoothing Nr. [pixels]: 0
Data measured with spectrometer [name]: 7416147SP
Wave   ;Sample   ;Dark     ;Reference
[nm]   ;[counts] ;[counts] ;[counts] 

230,218;  319,400;  284,600;  274,450
230,311;  306,400;  306,600;  296,450
230,404;  303,400;  298,600;  326,450
230,497;  310,400;  295,600;  309,450
230,591;  343,400;  342,600;  328,450
230,684;  304,400;  317,600;  333,450
230,777;  311,400;  318,600;  312,450
230,870;  276,400;  330,600;  321,450
230,964;  325,400;  321,600;  306,450
231,057;  318,400;  306,600;  332,450
231,150;  332,400;  320,600;  304,450
231,243;  342,400;  310,600;  310,450
231,336;  336,400;  334,600;  326,450
231,430;  283,400;  320,600;  279,450
231,523;  319,400;  346,600;  304,450
231,616;  290,400;  297,600;  290,450
231,709;  361,400;  328,600;  315,450
231,802;  306,400;  280,600;  295,450
231,895;  320,400;  293,600;  313,450
231,988;  322,400;  312,600;  320,450
232,082;  289,400;  316,600;  281,450
232,175;  313,400;  289,600;  279,450
232,268;  297,400;  319,600;  301,450
232,361;  318,400;  288,600;  264,450
232,454;  325,400;  297,600;  320,450
232,547;  333,400;  333,600;  272,450
232,640;  277,400;  314,600;  287,450
232,733;  331,400;  297,600;  300,450
232,826;  281,400;  303,600;  270,450
232,919;  303,400;  318,600;  294,450
233,012;  281,400;  322,600;  292,450
233,105;  297,400;  318,600;  283,450
233,199;  316,400;  324,600;  298,450
233,292;  303,400;  293,600;  307,450
233,385;  282,400;  262,600;  233,450
233,478;  291,400;  302,600;  272,450
233,571;  293,400;  314,600;  293,450
233,664;  322,400;  341,600;  283,450
233,757;  310,400;  254,600;  231,450
233,850;  289,400;  272,600;  248,450
233,943;  294,400;  298,600;  272,450
234,035;  315,400;  318,600;  292,450
234,128;  319,400;  282,600;  265,450
234,221;  293,400;  310,600;  293,450
234,314;  331,400;  333,600;  318,450
234,407;  311,400;  338,600;  286,450
234,500;  256,400;  286,600;  280,450
234,593;  288,400;  280,600;  290,450
234,686;  287,400;  276,600;  256,450
234,779;  290,400;  270,600;  275,450
234,872;  288,400;  276,600;  261,450
234,965;  286,400;  298,600;  286,450
235,058;  290,400;  269,600;  263,450
235,150;  312,400;  311,600;  286,450
235,243;  291,400;  280,600;  311,450
235,336;  302,400;  317,600;  296,450
235,429;  271,400;  258,600;  241,450
235,522;  343,400;  352,600;  293,450
235,615;  290,400;  309,600;  253,450
235,707;  292,400;  289,600;  277,450
235,800;  241,400;  302,600;  268,450
235,893;  300,400;  328,600;  262,450
235,986;  312,400;  305,600;  312,450
236,079;  273,400;  310,600;  308,450
236,171;  266,400;  272,600;  270,450
236,264;  315,400;  310,600;  282,450
236,357;  276,400;  289,600;  297,450
236,450;  360,400;  314,600;  308,450
236,542;  261,400;  286,600;  258,450
236,635;  331,400;  319,600;  287,450
236,728;  296,400;  276,600;  273,450
236,821;  282,400;  270,600;  268,450
236,913;  280,400;  326,600;  268,450
237,006;  265,400;  300,600;  257,450
237,099;  304,400;  289,600;  271,450
237,191;  316,400;  345,600;  288,450
237,284;  265,400;  256,600;  282,450
237,377;  304,400;  294,600;  312,450
237,470;  307,400;  291,600;  256,450
237,562;  276,400;  266,600;  261,450
237,655;  328,400;  342,600;  294,450
237,747;  299,400;  325,600;  263,450
237,840;  330,400;  292,600;  302,450
237,933;  326,400;  327,600;  284,450
238,025;  328,400;  338,600;  306,450
238,118;  280,400;  306,600;  287,450
238,211;  254,400;  282,600;  227,450
238,303;  287,400;  277,600;  273,450
238,396;  261,400;  289,600;  270,450
238,488;  322,400;  300,600;  281,450
238,581;  266,400;  306,600;  235,450
238,673;  275,400;  304,600;  273,450
238,766;  320,400;  268,600;  282,450
238,859;  279,400;  282,600;  277,450
238,951;  291,400;  295,600;  280,450
239,044;  301,400;  270,600;  283,450
239,136;  286,400;  269,600;  284,450
239,229;  312,400;  297,600;  291,450
239,321;  296,400;  262,600;  248,450
239,414;  304,400;  289,600;  288,450
239,506;  339,400;  280,600;  267,450
239,599;  309,400;  352,600;  292,450
239,691;  308,400;  306,600;  269,450
239,784;  304,400;  296,600;  288,450
239,876;  314,400;  280,600;  288,450
239,969;  298,400;  287,600;  281,450
240,061;  275,400;  277,600;  262,450
240,153;  278,400;  260,600;  278,450
240,246;  316,400;  295,600;  292,450
240,338;  311,400;  309,600;  324,450
240,431;  245,400;  277,600;  282,450
240,523;  292,400;  300,600;  237,450
240,615;  349,400;  293,600;  321,450
240,708;  334,400;  355,600;  292,450
240,800;  298,400;  302,600;  288,450
240,893;  277,400;  274,600;  261,450
240,985;  344,400;  321,600;  270,450
241,077;  281,400;  268,600;  262,450
241,170;  321,400;  313,600;  286,450
241,262;  307,400;  284,600;  284,450
241,354;  305,400;  246,600;  244,450
241,447;  290,400;  286,600;  271,450
241,539;  279,400;  295,600;  247,450
241,631;  297,400;  312,600;  279,450
241,724;  280,400;  261,600;  246,450
241,816;  331,400;  258,600;  264,450
241,908;  291,400;  278,600;  263,450
242,000;  282,400;  283,600;  263,450
242,093;  331,400;  303,600;  261,450
242,185;  304,400;  306,600;  269,450
242,277;  302,400;  282,600;  242,450
242,369;  284,400;  278,600;  269,450
242,462;  299,400;  271,600;  247,450
242,554;  304,400;  253,600;  266,450
242,646;  306,400;  282,600;  270,450
242,738;  335,400;  320,600;  281,450
242,830;  270,400;  292,600;  230,450
242,923;  300,400;  309,600;  303,450
243,015;  282,400;  288,600;  269,450
243,107;  275,400;  280,600;  253,450
243,199;  324,400;  309,600;  300,450
243,291;  275,400;  319,600;  253,450
243,383;  256,400;  240,600;  273,450
243,476;  259,400;  257,600;  282,450
243,568;  284,400;  293,600;  284,450
243,660;  276,400;  260,600;  268,450
243,752;  274,400;  305,600;  270,450
243,844;  304,400;  299,600;  284,450
243,936;  294,400;  316,600;  299,450
244,028;  314,400;  332,600;  290,450
244,120;  244,400;  267,600;  230,450
244,212;  295,400;  298,600;  289,450
244,305;  272,400;  267,600;  270,450
244,397;  307,400;  315,600;  267,450
244,489;  303,400;  303,600;  285,450
244,581;  326,400;  301,600;  279,450
244,673;  326,400;  286,600;  252,450
244,765;  288,400;  277,600;  293,450
244,857;  282,400;  303,600;  251,450
244,949;  282,400;  305,600;  282,450
245,041;  277,400;  250,600;  223,450
245,133;  309,400;  294,600;  292,450
245,225;  264,400;  258,600;  248,450
245,317;  309,400;  253,600;  267,450
245,409;  267,400;  282,600;  263,450
245,501;  271,400;  286,600;  265,450
245,593;  307,400;  328,600;  278,450
245,685;  284,400;  330,600;  286,450
245,776;  317,400;  298,600;  267,450
245,868;  296,400;  308,600;  263,450
245,960;  278,400;  242,600;  252,450
246,052;  324,400;  291,600;  307,450
246,144;  296,400;  282,600;  285,450
246,236;  285,400;  296,600;  257,450
246,328;  278,400;  285,600;  287,450
246,420;  291,400;  282,600;  270,450
246,512;  328,400;  303,600;  295,450
246,604;  290,400;  280,600;  278,450
246,695;  297,400;  275,600;  268,450
246,787;  299,400;  288,600;  299,450
246,879;  288,400;  296,600;  275,450
246,971;  312,400;  305,600;  285,450
247,063;  265,400;  281,600;  253,450
247,155;  279,400;  295,600;  240,450
247,246;  318,400;  305,600;  285,450
247,338;  276,400;  297,600;  287,450
247,430;  290,400;  298,600;  312,450
247,522;  319,400;  294,600;  294,450
247,613;  302,400;  287,600;  278,450
247,705;  335,400;  302,600;  286,450
247,797;  318,400;  322,600;  301,450
247,889;  315,400;  294,600;  286,450
247,980;  306,400;  318,600;  273,450
248,072;  353,400;  315,600;  275,450
248,164;  364,400;  368,600;  297,450
248,256;  291,400;  280,600;  302,450
248,347;  310,400;  312,600;  275,450
248,439;  279,400;  302,600;  260,450
248,531;  329,400;  301,600;  297,450
248,622;  316,400;  315,600;  318,450
248,714;  306,400;  303,600;  257,450
248,806;  327,400;  301,600;  287,450
248,897;  290,400;  266,600;  290,450
248,989;  273,400;  260,600;  246,450
249,081;  290,400;  291,600;  305,450
249,172;  291,400;  289,600;  264,450
249,264;  286,400;  310,600;  303,450
249,356;  273,400;  274,600;  253,450
249,447;  293,400;  287,600;  283,450
249,539;  305,400;  289,600;  288,450
249,630;  282,400;  296,600;  286,450
249,722;  309,400;  310,600;  305,450
249,813;  297,400;  302,600;  256,450
249,905;  277,400;  319,600;  291,450
249,997;  285,400;  270,600;  248,450
250,088;  283,400;  295,600;  285,450
250,180;  279,400;  280,600;  288,450
250,271;  289,400;  296,600;  268,450
250,363;  335,400;  329,600;  307,450
250,454;  291,400;  268,600;  238,450
250,546;  294,400;  271,600;  272,450
250,637;  246,400;  285,600;  242,450
250,729;  241,400;  267,600;  250,450
250,820;  306,400;  306,600;  297,450
250,912;  266,400;  299,600;  243,450
251,003;  299,400;  285,600;  296,450
251,095;  273,400;  296,600;  273,450
251,186;  297,400;  269,600;  253,450
251,277;  295,400;  276,600;  290,450
251,369;  295,400;  295,600;  275,450
251,460;  278,400;  272,600;  272,450
251,552;  335,400;  293,600;  292,450
251,643;  283,400;  292,600;  276,450
251,735;  272,400;  303,600;  241,450
251,826;  272,400;  313,600;  259,450
251,917;  331,400;  325,600;  258,450
252,009;  316,400;  338,600;  254,450
252,100;  322,400;  343,600;  266,450
252,191;  358,400;  337,600;  260,450
252,283;  360,400;  328,600;  299,450
252,374;  396,400;  372,600;  289,450
252,465;  368,400;  390,600;  301,450
252,557;  355,400;  393,600;  251,450
252,648;  377,400;  378,600;  258,450
252,739;  414,400;  397,600;  267,450
252,831;  432,400;  439,600;  250,450
252,922;  464,400;  440,600;  266,450
253,013;  502,400;  520,600;  241,450
253,104;  575,400;  576,600;  255,450
253,196;  691,400;  712,600;  265,450
253,287;  812,400;  807,600;  289,450
253,378; 1282,400; 1233,600;  257,450
253,469; 4327,400; 4083,600;  246,450
253,561;23556,400;23239,600;  253,450
253,652;43156,398;42949,602;  272,450
253,743; 5742,400; 5893,600;  210,450
253,834;  611,400;  622,600;  260,450
253,926;  508,400;  531,600;  249,450
254,017;  520,400;  459,600;  280,450
254,108;  414,400;  528,600;  290,450
254,199;  453,400;  418,600;  277,450
254,290;  396,400;  380,600;  290,450
254,381;  438,400;  429,600;  276,450
254,472;  402,400;  437,600;  250,450
254,564;  411,400;  411,600;  327,450
254,655;  409,400;  392,600;  304,450
254,746;  330,400;  345,600;  225,450
254,837;  411,400;  372,600;  282,450
254,928;  333,400;  368,600;  247,450
255,019;  376,400;  375,600;  281,450
255,110;  331,400;  357,600;  302,450
255,201;  343,400;  318,600;  284,450
255,292;  350,400;  381,600;  271,450
255,383;  341,400;  347,600;  265,450
255,474;  328,400;  329,600;  248,450
255,566;  304,400;  366,600;  271,450
255,657;  334,400;  350,600;  306,450
255,748;  305,400;  292,600;  235,450
255,839;  331,400;  331,600;  282,450
255,930;  336,400;  292,600;  302,450
256,021;  326,400;  336,600;  297,450
256,112;  285,400;  296,600;  257,450
256,203;  357,400;  339,600;  315,450
256,294;  324,400;  321,600;  265,450
256,384;  280,400;  279,600;  261,450
256,475;  319,400;  289,600;  284,450
256,566;  295,400;  297,600;  274,450
256,657;  287,400;  291,600;  267,450
256,748;  284,400;  302,600;  280,450
256,839;  264,400;  281,600;  274,450
256,930;  276,400;  278,600;  260,450
257,021;  334,400;  328,600;  283,450
257,112;  304,400;  311,600;  327,450
257,203;  270,400;  268,600;  240,450
257,294;  282,400;  276,600;  257,450
257,385;  302,400;  284,600;  272,450
257,475;  303,400;  277,600;  255,450
257,566;  302,400;  313,600;  267,450
257,657;  295,400;  339,600;  264,450
257,748;  281,400;  283,600;  252,450
257,839;  295,400;  319,600;  306,450
257,930;  286,400;  276,600;  275,450
258,020;  275,400;  278,600;  281,450
258,111;  278,400;  285,600;  256,450
258,202;  305,400;  309,600;  258,450
258,293;  294,400;  267,600;  255,450
258,384;  293,400;  329,600;  295,450
258,474;  278,400;  296,600;  244,450
258,565;  275,400;  250,600;  252,450
258,656;  291,400;  306,600;  257,450
258,747;  275,400;  293,600;  255,450
258,837;  247,400;  266,600;  231,450
258,928;  303,400;  247,600;  280,450
259,019;  262,400;  272,600;  264,450
259,109;  252,400;  264,600;  254,450
259,200;  294,400;  292,600;  291,450
259,291;  252,400;  246,600;  297,450
259,381;  318,400;  309,600;  264,450
259,472;  297,400;  299,600;  272,450
259,563;  296,400;  307,600;  273,450
259,653;  289,400;  281,600;  247,450
259,744;  278,400;  280,600;  260,450
259,835;  297,400;  284,600;  274,450
259,925;  317,400;  257,600;  276,450
260,016;  282,400;  303,600;  282,450
260,107;  257,400;  264,600;  265,450
260,197;  279,400;  279,600;  258,450
260,288;  261,400;  263,600;  273,450
260,378;  279,400;  274,600;  244,450
260,469;  299,400;  299,600;  273,450
260,560;  265,400;  267,600;  276,450
260,650;  282,400;  269,600;  265,450
260,741;  273,400;  279,600;  256,450
260,831;  296,400;  246,600;  276,450
260,922;  248,400;  271,600;  258,450
261,012;  261,400;  271,600;  256,450
261,103;  287,400;  320,600;  294,450
261,193;  309,400;  317,600;  320,450
261,284;  282,400;  256,600;  254,450
261,374;  294,400;  295,600;  253,450
261,465;  279,400;  321,600;  304,450
261,555;  264,400;  271,600;  275,450
261,646;  303,400;  290,600;  300,450
261,736;  247,400;  265,600;  287,450
261,827;  293,400;  293,600;  256,450
261,917;  328,400;  294,600;  344,450
262,007;  280,400;  269,600;  289,450
262,098;  256,400;  334,600;  256,450
262,188;  346,400;  316,600;  305,450
262,279;  319,400;  290,600;  292,450
262,369;  290,400;  276,600;  282,450
262,459;  280,400;  262,600;  260,450
262,550;  300,400;  314,600;  290,450
262,640;  293,400;  261,600;  274,450
262,731;  326,400;  302,600;  298,450
262,821;  309,400;  287,600;  323,450
262,911;  290,400;  312,600;  268,450
263,002;  260,400;  278,600;  271,450
263,092;  291,400;  292,600;  309,450
263,182;  277,400;  280,600;  257,450
263,273;  291,400;  277,600;  261,450
263,363;  285,400;  309,600;  284,450
263,453;  286,400;  266,600;  259,450
263,543;  270,400;  289,600;  326,450
263,634;  237,400;  263,600;  262,450
263,724;  272,400;  278,600;  276,450
263,814;  301,400;  304,600;  288,450
263,904;  247,400;  270,600;  267,450
263,995;  335,400;  306,600;  321,450
264,085;  297,400;  301,600;  259,450
264,175;  294,400;  284,600;  306,450
264,265;  319,400;  305,600;  298,450
264,356;  294,400;  260,600;  289,450
264,446;  282,400;  296,600;  298,450
264,536;  295,400;  270,600;  297,450
264,626;  311,400;  315,600;  295,450
264,716;  298,400;  330,600;  277,450
264,806;  313,400;  327,600;  306,450
264,897;  275,400;  255,600;  273,450
264,987;  290,400;  310,600;  286,450
265,077;  318,400;  297,600;  285,450
265,167;  367,400;  394,600;  346,450
265,257;  291,400;  333,600;  273,450
265,347;  330,400;  331,600;  286,450
265,437;  307,400;  304,600;  289,450
265,527;  269,400;  314,600;  292,450
265,617;  268,400;  292,600;  265,450
265,708;  314,400;  330,600;  308,450
265,798;  291,400;  315,600;  301,450
265,888;  274,400;  275,600;  270,450
265,978;  275,400;  274,600;  242,450
266,068;  304,400;  291,600;  316,450
266,158;  301,400;  288,600;  254,450
266,248;  260,400;  305,600;  248,450
266,338;  319,400;  307,600;  293,450
266,428;  292,400;  294,600;  259,450
266,518;  292,400;  321,600;  320,450
266,608;  273,400;  245,600;  273,450
266,698;  252,400;  284,600;  256,450
266,788;  290,400;  263,600;  248,450
266,878;  316,400;  350,600;  317,450
266,968;  284,400;  282,600;  304,450
267,058;  295,400;  280,600;  292,450
267,147;  308,400;  327,600;  300,450
267,237;  305,400;  293,600;  276,450
267,327;  284,400;  292,600;  276,450
267,417;  312,400;  320,600;  264,450
267,507;  262,400;  297,600;  294,450
267,597;  294,400;  273,600;  272,450
267,687;  277,400;  268,600;  286,450
267,777;  262,400;  267,600;  270,450
267,867;  298,400;  321,600;  296,450
267,956;  321,400;  282,600;  257,450
268,046;  303,400;  306,600;  298,450
268,136;  279,400;  265,600;  291,450
268,226;  275,400;  269,600;  261,450
268,316;  231,400;  266,600;  262,450
268,406;  301,400;  268,600;  338,450
268,495;  276,400;  278,600;  259,450
268,585;  310,400;  304,600;  263,450
268,675;  268,400;  296,600;  260,450
268,765;  310,400;  296,600;  287,450
268,854;  265,400;  277,600;  291,450
268,944;  284,400;  288,600;  299,450
269,034;  317,400;  313,600;  279,450
269,124;  300,400;  283,600;  286,450
269,213;  261,400;  277,600;  255,450
269,303;  279,400;  290,600;  247,450
269,393;  280,400;  265,600;  307,450
269,483;  307,400;  338,600;  273,450
269,572;  294,400;  295,600;  243,450
269,662;  261,400;  286,600;  301,450
269,752;  324,400;  320,600;  299,450
269,841;  264,400;  270,600;  247,450
269,931;  276,400;  264,600;  276,450
270,021;  289,400;  299,600;  295,450
270,110;  273,400;  286,600;  268,450
270,200;  270,400;  329,600;  299,450
270,289;  284,400;  258,600;  279,450
270,379;  294,400;  315,600;  282,450
270,469;  271,400;  297,600;  273,450
270,558;  301,400;  300,600;  286,450
270,648;  265,400;  266,600;  245,450
270,737;  310,400;  288,600;  271,450
270,827;  315,400;  279,600;  263,450
270,916;  296,400;  266,600;  280,450
271,006;  299,400;  287,600;  287,450
271,096;  301,400;  312,600;  334,450
271,185;  297,400;  307,600;  299,450
271,275;  342,400;  305,600;  279,450
271,364;  268,400;  300,600;  286,450
271,454;  290,400;  301,600;  273,450
271,543;  277,400;  295,600;  279,450
271,633;  317,400;  293,600;  257,450
271,722;  267,400;  240,600;  257,450
271,812;  270,400;  255,600;  299,450
271,901;  309,400;  276,600;  286,450
271,990;  293,400;  293,600;  267,450
272,080;  273,400;  282,600;  284,450
272,169;  310,400;  339,600;  288,450
272,259;  253,400;  319,600;  275,450
272,348;  295,400;  291,600;  305,450
272,438;  285,400;  302,600;  301,450
272,527;  273,400;  288,600;  290,450
272,616;  283,400;  295,600;  300,450
272,706;  305,400;  319,600;  313,450
272,795;  330,400;  285,600;  290,450
272,884;  297,400;  302,600;  294,450
272,974;  317,400;  281,600;  279,450
273,063;  318,400;  361,600;  290,450
273,152;  297,400;  299,600;  296,450
273,242;  313,400;  296,600;  311,450
273,331;  309,400;  306,600;  299,450
273,420;  323,400;  296,600;  313,450
273,510;  299,400;  292,600;  311,450
273,599;  325,400;  323,600;  312,450
273,688;  313,400;  311,600;  299,450
273,778;  283,400;  266,600;  259,450
273,867;  312,400;  287,600;  312,450
273,956;  290,400;  303,600;  273,450
274,045;  255,400;  263,600;  236,450
274,135;  299,400;  317,600;  317,450
274,224;  284,400;  316,600;  295,450
274,313;  278,400;  299,600;  294,450
274,402;  271,400;  263,600;  266,450
274,491;  312,400;  277,600;  286,450
274,581;  296,400;  302,600;  266,450
274,670;  280,400;  311,600;  303,450
274,759;  291,400;  303,600;  283,450
274,848;  286,400;  275,600;  301,450
274,937;  272,400;  276,600;  293,450
275,026;  292,400;  298,600;  255,450
275,116;  316,400;  323,600;  309,450
275,205;  296,400;  263,600;  231,450
275,294;  331,400;  333,600;  302,450
275,383;  326,400;  253,600;  278,450
275,472;  286,400;  286,600;  299,450
275,561;  312,400;  299,600;  300,450
275,650;  302,400;  289,600;  281,450
275,739;  300,400;  268,600;  287,450
275,828;  269,400;  262,600;  259,450
275,917;  299,400;  318,600;  305,450
276,006;  292,400;  255,600;  304,450
276,095;  259,400;  276,600;  294,450
276,184;  310,400;  317,600;  317,450
276,273;  309,400;  270,600;  297,450
276,362;  252,400;  260,600;  256,450
276,451;  280,400;  271,600;  286,450
276,540;  306,400;  259,600;  271,450
276,629;  311,400;  274,600;  290,450
276,718;  263,400;  268,600;  258,450
276,807;  262,400;  275,600;  256,450
276,896;  276,400;  269,600;  277,450
276,985;  283,400;  287,600;  255,450
277,074;  298,400;  270,600;  267,450
277,163;  304,400;  289,600;  281,450
277,252;  295,400;  269,600;  278,450
277,341;  270,400;  272,600;  248,450
277,430;  266,400;  239,600;  255,450
277,519;  283,400;  304,600;  293,450
277,608;  276,400;  254,600;  244,450
277,696;  262,400;  272,600;  279,450
277,785;  269,400;  255,600;  276,450
277,874;  313,400;  285,600;  259,450
277,963;  272,400;  273,600;  248,450
278,052;  266,400;  264,600;  286,450
278,141;  269,400;  289,600;  267,450
278,229;  301,400;  279,600;  278,450
278,318;  279,400;  278,600;  269,450
278,407;  298,400;  288,600;  264,450
278,496;  279,400;  319,600;  277,450
278,585;  275,400;  288,600;  297,450
278,673;  255,400;  257,600;  251,450
278,762;  272,400;  238,600;  264,450
278,851;  295,400;  293,600;  272,450
278,940;  304,400;  293,600;  318,450
279,028;  316,400;  271,600;  284,450
279,117;  312,400;  290,600;  283,450
279,206;  288,400;  260,600;  254,450
279,294;  268,400;  280,600;  268,450
279,383;  290,400;  272,600;  289,450
279,472;  280,400;  311,600;  252,450
279,561;  270,400;  264,600;  275,450
279,649;  292,400;  305,600;  283,450
279,738;  250,400;  229,600;  266,450
279,827;  309,400;  285,600;  272,450
279,915;  266,400;  283,600;  248,450
280,004;  263,400;  273,600;  285,450
280,092;  312,400;  286,600;  275,450
280,181;  289,400;  284,600;  249,450
280,270;  301,400;  280,600;  236,450
280,358;  287,400;  299,600;  288,450
280,447;  254,400;  246,600;  240,450
280,535;  240,400;  284,600;  259,450
280,624;  257,400;  291,600;  256,450
280,713;  271,400;  267,600;  266,450
280,801;  272,400;  303,600;  274,450
280,890;  267,400;  262,600;  274,450
280,978;  288,400;  267,600;  239,450
281,067;  235,400;  229,600;  244,450
281,155;  268,400;  267,600;  279,450
281,244;  292,400;  301,600;  299,450
281,332;  282,400;  252,600;  297,450
281,421;  276,400;  273,600;  229,450
281,509;  278,400;  266,600;  268,450
281,598;  278,400;  255,600;  241,450
281,686;  282,400;  300,600;  277,450
281,775;  299,400;  283,600;  280,450
281,863;  274,400;  244,600;  264,450
281,951;  265,400;  254,600;  256,450
282,040;  301,400;  289,600;  320,450
282,128;  287,400;  289,600;  290,450
282,217;  258,400;  255,600;  246,450
282,305;  279,400;  291,600;  280,450
282,393;  291,400;  332,600;  266,450
282,482;  305,400;  314,600;  268,450
282,570;  258,400;  274,600;  279,450
282,658;  273,400;  295,600;  277,450
282,747;  264,400;  257,600;  278,450
282,835;  274,400;  319,600;  305,450
282,923;  255,400;  230,600;  262,450
283,012;  275,400;  268,600;  305,450
283,100;  271,400;  263,600;  230,450
283,188;  236,400;  244,600;  243,450
283,277;  261,400;  279,600;  282,450
283,365;  260,400;  252,600;  253,450
283,453;  274,400;  253,600;  228,450
283,542;  268,400;  293,600;  259,450
283,630;  270,400;  259,600;  271,450
283,718;  281,400;  271,600;  247,450
283,806;  228,400;  225,600;  226,450
283,894;  283,400;  276,600;  274,450
283,983;  222,400;  256,600;  279,450
284,071;  273,400;  307,600;  269,450
284,159;  335,400;  319,600;  305,450
284,247;  278,400;  296,600;  287,450
284,335;  288,400;  267,600;  263,450
284,424;  263,400;  287,600;  269,450
284,512;  261,400;  295,600;  248,450
284,600;  282,400;  261,600;  236,450
284,688;  301,400;  297,600;  325,450
284,776;  284,400;  259,600;  277,450
284,864;  290,400;  327,600;  300,450
284,952;  255,400;  291,600;  276,450
285,041;  329,400;  286,600;  304,450
285,129;  291,400;  304,600;  290,450
285,217;  286,400;  309,600;  280,450
285,305;  291,400;  297,600;  304,450
285,393;  250,400;  255,600;  268,450
285,481;  297,400;  292,600;  274,450
285,569;  250,400;  297,600;  281,450
285,657;  295,400;  272,600;  276,450
285,745;  304,400;  334,600;  282,450
285,833;  293,400;  277,600;  294,450
285,921;  283,400;  301,600;  299,450
286,009;  301,400;  308,600;  308,450
286,097;  260,400;  313,600;  288,450
286,185;  272,400;  294,600;  259,450
286,273;  285,400;  302,600;  257,450
286,361;  308,400;  322,600;  287,450
286,449;  259,400;  305,600;  260,450
286,537;  254,400;  300,600;  248,450
286,625;  294,400;  300,600;  275,450
286,713;  253,400;  262,600;  270,450
286,801;  304,400;  320,600;  307,450
286,889;  310,400;  304,600;  282,450
286,976;  261,400;  271,600;  266,450
287,064;  301,400;  297,600;  309,450
287,152;  281,400;  332,600;  299,450
287,240;  286,400;  297,600;  327,450
287,328;  269,400;  249,600;  245,450
287,416;  287,400;  295,600;  277,450
287,504;  273,400;  302,600;  274,450
287,591;  297,400;  317,600;  307,450
287,679;  249,400;  272,600;  275,450
287,767;  303,400;  270,600;  292,450
287,855;  288,400;  271,600;  284,450
287,943;  265,400;  312,600;  269,450
288,030;  293,400;  246,600;  293,450
288,118;  287,400;  325,600;  295,450
288,206;  244,400;  264,600;  290,450
288,294;  284,400;  273,600;  292,450
288,382;  271,400;  301,600;  288,450
288,469;  311,400;  324,600;  274,450
288,557;  282,400;  276,600;  275,450
288,645;  306,400;  321,600;  281,450
288,732;  282,400;  274,600;  276,450
288,820;  268,400;  334,600;  270,450
288,908;  300,400;  295,600;  295,450
288,995;  277,400;  295,600;  277,450
289,083;  283,400;  278,600;  278,450
289,171;  319,400;  328,600;  310,450
289,258;  332,400;  402,600;  311,450
289,346;  430,400;  433,600;  329,450
289,434;  323,400;  345,600;  318,450
289,521;  288,400;  298,600;  281,450
289,609;  314,400;  317,600;  309,450
289,697;  298,400;  310,600;  321,450
289,784;  257,400;  300,600;  284,450
289,872;  276,400;  314,600;  313,450
289,959;  278,400;  274,600;  262,450
290,047;  275,400;  268,600;  272,450
290,134;  265,400;  286,600;  264,450
290,222;  317,400;  317,600;  294,450
290,310;  312,400;  310,600;  280,450
290,397;  315,400;  302,600;  319,450
290,485;  310,400;  291,600;  284,450
290,572;  317,400;  286,600;  318,450
290,660;  313,400;  300,600;  293,450
290,747;  314,400;  292,600;  290,450
290,835;  318,400;  296,600;  321,450
290,922;  271,400;  307,600;  294,450
291,009;  315,400;  310,600;  283,450
291,097;  295,400;  305,600;  282,450
291,184;  313,400;  319,600;  313,450
291,272;  289,400;  297,600;  264,450
291,359;  260,400;  283,600;  283,450
291,447;  300,400;  294,600;  309,450
291,534;  312,400;  310,600;  315,450
291,621;  289,400;  261,600;  308,450
291,709;  241,400;  284,600;  270,450
291,796;  258,400;  313,600;  323,450
291,884;  276,400;  310,600;  308,450
291,971;  350,400;  306,600;  287,450
292,058;  313,400;  250,600;  294,450
292,146;  283,400;  293,600;  279,450
292,233;  307,400;  284,600;  243,450
292,320;  294,400;  294,600;  284,450
292,408;  311,400;  316,600;  297,450
292,495;  321,400;  302,600;  281,450
292,582;  302,400;  276,600;  273,450
292,669;  296,400;  273,600;  285,450
292,757;  283,400;  292,600;  288,450
292,844;  306,400;  305,600;  312,450
292,931;  257,400;  272,600;  266,450
293,018;  281,400;  267,600;  264,450
293,106;  298,400;  290,600;  324,450
293,193;  250,400;  265,600;  280,450
293,280;  271,400;  304,600;  310,450
293,367;  293,400;  279,600;  295,450
293,455;  281,400;  253,600;  248,450
293,542;  245,400;  264,600;  268,450
293,629;  269,400;  264,600;  272,450
293,716;  294,400;  341,600;  307,450
293,803;  253,400;  273,600;  279,450
293,890;  311,400;  284,600;  298,450
293,978;  275,400;  277,600;  266,450
294,065;  255,400;  293,600;  268,450
294,152;  261,400;  276,600;  315,450
294,239;  271,400;  294,600;  269,450
294,326;  300,400;  307,600;  277,450
294,413;  286,400;  280,600;  253,450
294,500;  288,400;  304,600;  286,450
294,587;  291,400;  291,600;  255,450
294,674;  278,400;  280,600;  314,450
294,761;  292,400;  283,600;  266,450
294,848;  313,400;  275,600;  288,450
294,935;  254,400;  281,600;  279,450
295,022;  256,400;  269,600;  243,450
295,109;  247,400;  259,600;  253,450
295,196;  278,400;  297,600;  309,450
295,283;  271,400;  295,600;  256,450
295,370;  327,400;  318,600;  307,450
295,457;  286,400;  266,600;  285,450
295,544;  264,400;  277,600;  264,450
295,631;  275,400;  282,600;  272,450
295,718;  264,400;  279,600;  248,450
295,805;  294,400;  298,600;  281,450
295,892;  305,400;  314,600;  274,450
295,979;  282,400;  294,600;  284,450
296,066;  282,400;  306,600;  278,450
296,153;  308,400;  313,600;  324,450
296,240;  307,400;  312,600;  282,450
296,327;  283,400;  286,600;  257,450
296,413;  291,400;  316,600;  272,450
296,500;  307,400;  330,600;  261,450
296,587;  556,400;  534,600;  268,450
296,674; 1688,400; 1749,600;  263,450
296,761;  738,400;  786,600;  252,450
296,848;  292,400;  299,600;  274,450
296,934;  308,400;  296,600;  274,450
297,021;  298,400;  286,600;  266,450
297,108;  304,400;  310,600;  269,450
297,195;  279,400;  276,600;  268,450
297,282;  264,400;  295,600;  273,450
297,368;  316,400;  297,600;  347,450
297,455;  291,400;  284,600;  259,450
297,542;  316,400;  330,600;  316,450
297,629;  282,400;  315,600;  290,450
297,715;  326,400;  309,600;  306,450
297,802;  278,400;  286,600;  273,450
297,889;  298,400;  307,600;  319,450
297,975;  312,400;  326,600;  320,450
298,062;  305,400;  325,600;  301,450
298,149;  285,400;  300,600;  269,450
298,235;  273,400;  286,600;  308,450
298,322;  299,400;  287,600;  291,450
298,409;  288,400;  340,600;  304,450
298,495;  271,400;  282,600;  250,450
298,582;  291,400;  303,600;  304,450
298,669;  285,400;  290,600;  290,450
298,755;  256,400;  295,600;  281,450
298,842;  292,400;  315,600;  314,450
298,928;  308,400;  298,600;  281,450
299,015;  296,400;  287,600;  296,450
299,102;  319,400;  306,600;  309,450
299,188;  330,400;  307,600;  292,450
299,275;  280,400;  313,600;  289,450
299,361;  260,400;  274,600;  256,450
299,448;  300,400;  283,600;  278,450
299,534;  322,400;  328,600;  282,450
299,621;  309,400;  323,600;  302,450
299,707;  322,400;  298,600;  298,450
299,794;  320,400;  318,600;  322,450
299,880;  314,400;  301,600;  313,450
299,967;  303,400;  285,600;  251,450
300,053;  279,400;  301,600;  301,450
300,140;  313,400;  314,600;  315,450
300,226;  302,400;  320,600;  297,450
300,312;  297,400;  310,600;  306,450
300,399;  270,400;  290,600;  309,450
300,485;  280,400;  310,600;  268,450
300,572;  253,400;  272,600;  257,450
300,658;  279,400;  299,600;  272,450
300,744;  311,400;  310,600;  301,450
300,831;  329,400;  302,600;  292,450
300,917;  304,400;  298,600;  310,450
301,004;  295,400;  299,600;  288,450
301,090;  270,400;  279,600;  254,450
301,176;  276,400;  284,600;  254,450
301,263;  311,400;  322,600;  282,450
301,349;  274,400;  294,600;  273,450
301,435;  262,400;  267,600;  268,450
301,521;  305,400;  323,600;  301,450
301,608;  310,400;  311,600;  319,450
301,694;  282,400;  304,600;  283,450
301,780;  307,400;  296,600;  288,450
301,867;  313,400;  281,600;  274,450
301,953;  319,400;  289,600;  304,450
302,039;  371,400;  409,600;  273,450
302,125;  521,400;  539,600;  281,450
302,211;  374,400;  349,600;  300,450
302,298;  343,400;  374,600;  261,450
302,384;  286,400;  296,600;  238,450
302,470;  276,400;  280,600;  280,450
302,556;  277,400;  331,600;  294,450
302,642;  275,400;  286,600;  226,450
302,729;  288,400;  300,600;  270,450
302,815;  271,400;  299,600;  269,450
302,901;  252,400;  267,600;  294,450
302,987;  295,400;  299,600;  293,450
303,073;  260,400;  284,600;  283,450
303,159;  308,400;  295,600;  305,450
303,245;  280,400;  279,600;  256,450
303,331;  274,400;  281,600;  277,450
303,417;  286,400;  283,600;  328,450
303,503;  308,400;  331,600;  293,450
303,590;  284,400;  289,600;  272,450
303,676;  278,400;  289,600;  302,450
303,762;  267,400;  288,600;  270,450
303,848;  277,400;  295,600;  316,450
303,934;  324,400;  323,600;  286,450
304,020;  292,400;  304,600;  288,450
304,106;  297,400;  318,600;  287,450
304,192;  320,400;  265,600;  275,450
304,278;  271,400;  297,600;  304,450
304,364;  314,400;  327,600;  303,450
304,450;  302,400;  283,600;  288,450
304,535;  317,400;  304,600;  295,450
304,621;  300,400;  302,600;  309,450
304,707;  318,400;  294,600;  296,450
304,793;  311,400;  323,600;  295,450
304,879;  303,400;  305,600;  292,450
304,965;  319,400;  297,600;  273,450
305,051;  316,400;  310,600;  260,450
305,137;  323,400;  266,600;  314,450
305,223;  290,400;  299,600;  301,450
305,309;  314,400;  306,600;  306,450
305,394;  300,400;  266,600;  282,450
305,480;  302,400;  298,600;  266,450
305,566;  288,400;  280,600;  297,450
305,652;  323,400;  297,600;  308,450
305,738;  333,400;  332,600;  315,450
305,824;  294,400;  280,600;  303,450
305,909;  303,400;  338,600;  301,450
305,995;  284,400;  267,600;  268,450
306,081;  332,400;  368,600;  334,450
306,167;  307,400;  287,600;  311,450
306,252;  335,400;  319,600;  311,450
306,338;  310,400;  332,600;  332,450
306,424;  298,400;  315,600;  260,450
306,510;  290,400;  355,600;  305,450
306,595;  312,400;  303,600;  335,450
306,681;  290,400;  321,600;  287,450
306,767;  299,400;  313,600;  286,450
306,852;  273,400;  337,600;  314,450
306,938;  327,400;  291,600;  336,450
307,024;  280,400;  281,600;  321,450
307,109;  337,400;  340,600;  327,450
307,195;  314,400;  318,600;  337,450
307,281;  307,400;  322,600;  315,450
307,366;  308,400;  319,600;  284,450
307,452;  314,400;  292,600;  312,450
307,537;  287,400;  289,600;  281,450
307,623;  263,400;  272,600;  282,450
307,709;  322,400;  302,600;  325,450
307,794;  288,400;  293,600;  258,450
307,880;  297,400;  321,600;  320,450
307,965;  322,400;  278,600;  274,450
308,051;  268,400;  263,600;  305,450
308,136;  315,400;  314,600;  260,450
308,222;  278,400;  306,600;  301,450
308,307;  281,400;  286,600;  312,450
308,393;  273,400;  294,600;  285,450
308,478;  326,400;  321,600;  308,450
308,564;  260,400;  280,600;  276,450
308,649;  297,400;  308,600;  304,450
308,735;  297,400;  320,600;  278,450
308,820;  309,400;  328,600;  304,450
308,906;  279,400;  298,600;  272,450
308,991;  332,400;  339,600;  314,450
309,076;  297,400;  335,600;  290,450
309,162;  251,400;  265,600;  245,450
309,247;  285,400;  297,600;  288,450
309,333;  300,400;  284,600;  286,450
309,418;  272,400;  281,600;  297,450
309,503;  279,400;  301,600;  289,450
309,589;  296,400;  308,600;  306,450
309,674;  271,400;  274,600;  268,450
309,759;  306,400;  291,600;  289,450
309,845;  284,400;  290,600;  312,450
309,930;  288,400;  292,600;  288,450
310,015;  266,400;  257,600;  251,450
310,101;  284,400;  282,600;  296,450
310,186;  293,400;  267,600;  298,450
310,271;  302,400;  298,600;  286,450
310,357;  292,400;  265,600;  286,450
310,442;  317,400;  288,600;  263,450
310,527;  268,400;  288,600;  306,450
310,612;  279,400;  291,600;  253,450
310,698;  321,400;  282,600;  275,450
310,783;  270,400;  288,600;  279,450
310,868;  309,400;  313,600;  263,450
310,953;  264,400;  269,600;  293,450
311,038;  296,400;  289,600;  286,450
311,124;  305,400;  296,600;  277,450
311,209;  289,400;  293,600;  291,450
311,294;  295,400;  306,600;  303,450
311,379;  262,400;  254,600;  258,450
311,464;  296,400;  302,600;  291,450
311,549;  267,400;  277,600;  294,450
311,634;  285,400;  284,600;  275,450
311,719;  300,400;  308,600;  309,450
311,805;  303,400;  308,600;  275,450
311,890;  272,400;  308,600;  261,450
311,975;  284,400;  262,600;  283,450
312,060;  289,400;  321,600;  289,450
312,145;  296,400;  277,600;  262,450
312,230;  320,400;  313,600;  285,450
312,315;  340,400;  325,600;  262,450
312,400;  378,400;  404,600;  303,450
312,485; 1691,400; 1668,600;  292,450
312,570; 1216,400; 1232,600;  239,450
312,655;  338,400;  342,600;  282,450
312,740;  290,400;  312,600;  289,450
312,825;  361,400;  329,600;  301,450
312,910;  322,400;  343,600;  278,450
312,995;  416,400;  443,600;  325,450
313,080; 2213,400; 2082,600;  265,450
313,165; 2247,400; 2149,600;  310,450
313,250;  339,400;  308,600;  276,450
313,335;  329,400;  321,600;  307,450
313,419;  252,400;  269,600;  242,450
313,504;  327,400;  304,600;  286,450
313,589;  304,400;  272,600;  277,450
313,674;  324,400;  303,600;  290,450
313,759;  285,400;  274,600;  273,450
313,844;  296,400;  276,600;  289,450
313,929;  290,400;  295,600;  285,450
314,014;  328,400;  307,600;  320,450
314,098;  312,400;  321,600;  305,450
314,183;  277,400;  258,600;  260,450
314,268;  258,400;  295,600;  290,450
314,353;  295,400;  287,600;  290,450
314,438;  312,400;  287,600;  294,450
314,522;  316,400;  272,600;  306,450
314,607;  297,400;  282,600;  302,450
314,692;  305,400;  291,600;  301,450
314,777;  300,400;  291,600;  279,450
314,861;  278,400;  293,600;  263,450
314,946;  312,400;  321,600;  303,450
315,031;  277,400;  284,600;  267,450
315,115;  295,400;  309,600;  318,450
315,200;  272,400;  301,600;  285,450
315,285;  259,400;  278,600;  275,450
315,369;  284,400;  282,600;  273,450
315,454;  293,400;  291,600;  305,450
315,539;  312,400;  280,600;  283,450
315,623;  290,400;  308,600;  292,450
315,708;  292,400;  326,600;  315,450
315,793;  274,400;  318,600;  308,450
315,877;  277,400;  311,600;  282,450
315,962;  300,400;  263,600;  283,450
316,046;  303,400;  327,600;  298,450
316,131;  326,400;  334,600;  313,450
316,216;  307,400;  308,600;  288,450
316,300;  285,400;  307,600;  281,450
316,385;  330,400;  301,600;  319,450
316,469;  322,400;  335,600;  331,450
316,554;  297,400;  290,600;  288,450
316,638;  292,400;  297,600;  286,450
316,723;  295,400;  285,600;  262,450
316,807;  281,400;  268,600;  273,450
316,892;  257,400;  293,600;  275,450
316,976;  301,400;  298,600;  318,450
317,061;  336,400;  282,600;  309,450
317,145;  318,400;  316,600;  315,450
317,230;  303,400;  309,600;  304,450
317,314;  261,400;  264,600;  259,450
317,398;  315,400;  280,600;  323,450
317,483;  270,400;  312,600;  266,450
317,567;  337,400;  299,600;  317,450
317,652;  278,400;  280,600;  244,450
317,736;  319,400;  277,600;  329,450
317,820;  316,400;  343,600;  287,450
317,905;  309,400;  311,600;  289,450
317,989;  283,400;  303,600;  312,450
318,073;  275,400;  281,600;  280,450
318,158;  274,400;  262,600;  284,450
318,242;  284,400;  297,600;  269,450
318,326;  297,400;  265,600;  260,450
318,411;  296,400;  263,600;  290,450
318,495;  278,400;  274,600;  286,450
318,579;  285,400;  264,600;  266,450
318,664;  244,400;  284,600;  242,450
318,748;  309,400;  290,600;  266,450
318,832;  282,400;  261,600;  263,450
318,916;  245,400;  272,600;  263,450
319,001;  319,400;  287,600;  299,450
319,085;  290,400;  265,600;  265,450
319,169;  273,400;  304,600;  285,450
319,253;  273,400;  270,600;  271,450
319,337;  289,400;  311,600;  265,450
319,422;  312,400;  329,600;  325,450
319,506;  277,400;  282,600;  264,450
319,590;  301,400;  303,600;  320,450
319,674;  281,400;  326,600;  301,450
319,758;  311,400;  277,600;  278,450
319,842;  300,400;  280,600;  290,450
319,926;  287,400;  268,600;  280,450
320,010;  251,400;  267,600;  226,450
320,095;  291,400;  284,600;  274,450
320,179;  254,400;  270,600;  263,450
320,263;  286,400;  259,600;  265,450
320,347;  246,400;  217,600;  260,450
320,431;  276,400;  267,600;  245,450
320,515;  260,400;  297,600;  267,450
320,599;  263,400;  274,600;  263,450
320,683;  295,400;  295,600;  306,450
320,767;  261,400;  246,600;  230,450
320,851;  282,400;  247,600;  282,450
320,935;  316,400;  294,600;  317,450
321,019;  284,400;  258,600;  297,450
321,103;  270,400;  319,600;  295,450
321,187;  275,400;  272,600;  303,450
321,271;  273,400;  299,600;  251,450
321,355;  280,400;  290,600;  264,450
321,439;  312,400;  282,600;  306,450
321,523;  289,400;  285,600;  287,450
321,606;  254,400;  289,600;  301,450
321,690;  269,400;  285,600;  261,450
321,774;  278,400;  284,600;  286,450
321,858;  296,400;  300,600;  283,450
321,942;  287,400;  298,600;  291,450
322,026;  297,400;  296,600;  280,450
322,110;  277,400;  286,600;  264,450
322,194;  277,400;  279,600;  293,450
322,277;  270,400;  287,600;  257,450
322,361;  250,400;  260,600;  265,450
322,445;  281,400;  285,600;  252,450
322,529;  279,400;  298,600;  264,450
322,613;  277,400;  273,600;  262,450
322,696;  285,400;  287,600;  266,450
322,780;  303,400;  303,600;  256,450
322,864;  305,400;  310,600;  288,450
322,948;  284,400;  262,600;  270,450
323,031;  287,400;  268,600;  269,450
323,115;  281,400;  299,600;  257,450
323,199;  266,400;  291,600;  268,450
323,282;  299,400;  284,600;  302,450
323,366;  296,400;  280,600;  307,450
323,450;  250,400;  241,600;  266,450
323,533;  297,400;  309,600;  308,450
323,617;  251,400;  243,600;  238,450
323,701;  270,400;  239,600;  257,450
323,784;  290,400;  305,600;  289,450
323,868;  291,400;  302,600;  285,450
323,952;  253,400;  276,600;  272,450
324,035;  290,400;  295,600;  297,450
324,119;  263,400;  285,600;  262,450
324,202;  267,400;  280,600;  298,450
324,286;  248,400;  236,600;  286,450
324,370;  281,400;  291,600;  274,450
324,453;  283,400;  287,600;  296,450
324,537;  304,400;  280,600;  281,450
324,620;  288,400;  295,600;  303,450
324,704;  292,400;  281,600;  261,450
324,787;  293,400;  295,600;  267,450
324,871;  292,400;  293,600;  314,450
324,954;  296,400;  299,600;  318,450
325,038;  318,400;  299,600;  301,450
325,121;  284,400;  302,600;  316,450
325,205;  293,400;  273,600;  277,450
325,288;  284,400;  280,600;  269,450
325,371;  290,400;  275,600;  285,450
325,455;  295,400;  289,600;  302,450
325,538;  304,400;  292,600;  308,450
325,622;  335,400;  302,600;  306,450
325,705;  304,400;  303,600;  300,450
325,788;  303,400;  297,600;  298,450
325,872;  308,400;  264,600;  279,450
325,955;  300,400;  305,600;  300,450
326,039;  290,400;  290,600;  313,450
326,122;  314,400;  277,600;  288,450
326,205;  278,400;  320,600;  299,450
326,289;  332,400;  313,600;  313,450
326,372;  292,400;  310,600;  288,450
326,455;  309,400;  322,600;  318,450
326,538;  315,400;  312,600;  306,450
326,622;  309,400;  285,600;  313,450
326,705;  288,400;  272,600;  290,450
326,788;  320,400;  288,600;  324,450
326,871;  299,400;  286,600;  281,450
326,955;  312,400;  293,600;  333,450
327,038;  293,400;  304,600;  284,450
327,121;  310,400;  313,600;  303,450
327,204;  346,400;  315,600;  298,450
327,288;  330,400;  326,600;  328,450
327,371;  292,400;  286,600;  294,450
327,454;  309,400;  303,600;  316,450
327,537;  251,400;  272,600;  285,450
327,620;  299,400;  327,600;  309,450
327,703;  311,400;  308,600;  314,450
327,786;  292,400;  320,600;  319,450
327,870;  309,400;  321,600;  308,450
327,953;  294,400;  307,600;  296,450
328,036;  298,400;  291,600;  264,450
328,119;  310,400;  345,600;  299,450
328,202;  270,400;  305,600;  287,450
328,285;  315,400;  336,600;  306,450
328,368;  315,400;  335,600;  328,450
328,451;  329,400;  325,600;  334,450
328,534;  289,400;  292,600;  283,450
328,617;  315,400;  290,600;  281,450
328,700;  358,400;  325,600;  327,450
328,783;  312,400;  319,600;  292,450
328,866;  313,400;  294,600;  287,450
328,949;  305,400;  341,600;  325,450
329,032;  286,400;  292,600;  308,450
329,115;  291,400;  288,600;  279,450
329,198;  286,400;  265,600;  282,450
329,281;  295,400;  310,600;  277,450
329,364;  313,400;  300,600;  330,450
329,447;  315,400;  303,600;  300,450
329,530;  334,400;  321,600;  317,450
329,613;  291,400;  302,600;  289,450
329,696;  294,400;  308,600;  298,450
329,778;  309,400;  313,600;  293,450
329,861;  274,400;  309,600;  288,450
329,944;  299,400;  326,600;  272,450
330,027;  324,400;  312,600;  296,450
330,110;  297,400;  305,600;  313,450
330,193;  253,400;  284,600;  300,450
330,275;  307,400;  290,600;  298,450
330,358;  274,400;  278,600;  298,450
330,441;  300,400;  307,600;  326,450
330,524;  311,400;  322,600;  298,450
330,607;  285,400;  281,600;  304,450
330,689;  282,400;  278,600;  321,450
330,772;  287,400;  290,600;  305,450
330,855;  338,400;  329,600;  287,450
330,938;  318,400;  332,600;  319,450
331,020;  303,400;  298,600;  292,450
331,103;  293,400;  280,600;  310,450
331,186;  302,400;  298,600;  286,450
331,268;  285,400;  280,600;  269,450
331,351;  293,400;  285,600;  311,450
331,434;  322,400;  296,600;  316,450
331,516;  353,400;  313,600;  329,450
331,599;  311,400;  266,600;  255,450
331,682;  317,400;  301,600;  302,450
331,764;  285,400;  308,600;  261,450
331,847;  321,400;  311,600;  310,450
331,929;  299,400;  286,600;  278,450
332,012;  298,400;  296,600;  295,450
332,095;  331,400;  348,600;  317,450
332,177;  323,400;  353,600;  324,450
332,260;  305,400;  349,600;  345,450
332,342;  288,400;  310,600;  291,450
332,425;  327,400;  301,600;  293,450
332,507;  338,400;  239,600;  316,450
332,590;  268,400;  274,600;  280,450
332,672;  299,400;  310,600;  264,450
332,755;  280,400;  320,600;  233,450
332,837;  316,400;  286,600;  274,450
332,920;  319,400;  315,600;  298,450
333,002;  320,400;  308,600;  306,450
333,085;  298,400;  308,600;  298,450
333,167;  300,400;  275,600;  266,450
333,249;  268,400;  276,600;  277,450
333,332;  288,400;  275,600;  279,450
333,414;  314,400;  317,600;  295,450
333,497;  287,400;  315,600;  305,450
333,579;  328,400;  303,600;  307,450
333,661;  334,400;  319,600;  286,450
333,744;  258,400;  265,600;  243,450
333,826;  303,400;  302,600;  293,450
333,908;  330,400;  329,600;  332,450
333,991;  292,400;  253,600;  285,450
334,073;  435,400;  503,600;  321,450
334,155;  351,400;  360,600;  289,450
334,238;  304,400;  314,600;  286,450
334,320;  295,400;  296,600;  270,450
334,402;  276,400;  298,600;  292,450
334,485;  292,400;  305,600;  282,450
334,567;  282,400;  301,600;  262,450
334,649;  276,400;  266,600;  273,450
334,731;  304,400;  287,600;  285,450
334,813;  264,400;  346,600;  352,450
334,896;  278,400;  296,600;  287,450
334,978;  283,400;  302,600;  283,450
335,060;  288,400;  306,600;  296,450
335,142;  306,400;  265,600;  306,450
335,224;  290,400;  308,600;  310,450
335,307;  267,400;  277,600;  275,450
335,389;  308,400;  302,600;  315,450
335,471;  292,400;  300,600;  282,450
335,553;  321,400;  308,600;  317,450
335,635;  291,400;  303,600;  277,450
335,717;  292,400;  280,600;  305,450
335,799;  306,400;  314,600;  325,450
335,881;  244,400;  271,600;  251,450
335,963;  269,400;  283,600;  278,450
336,045;  308,400;  281,600;  276,450
336,128;  260,400;  281,600;  268,450
336,210;  267,400;  284,600;  250,450
336,292;  280,400;  301,600;  283,450
336,374;  285,400;  307,600;  287,450
336,456;  280,400;  290,600;  258,450
336,538;  300,400;  288,600;  304,450
336,620;  306,400;  325,600;  305,450
336,702;  290,400;  308,600;  309,450
336,783;  303,400;  299,600;  289,450
336,865;  296,400;  302,600;  303,450
336,947;  316,400;  299,600;  302,450
337,029;  273,400;  252,600;  262,450
337,111;  315,400;  309,600;  328,450
337,193;  286,400;  257,600;  250,450
337,275;  306,400;  302,600;  291,450
337,357;  282,400;  299,600;  305,450
337,439;  295,400;  299,600;  277,450
337,521;  272,400;  274,600;  268,450
337,602;  283,400;  280,600;  295,450
337,684;  311,400;  302,600;  341,450
337,766;  301,400;  301,600;  288,450
337,848;  282,400;  309,600;  318,450
337,930;  284,400;  300,600;  300,450
338,012;  282,400;  257,600;  295,450
338,093;  316,400;  302,600;  312,450
338,175;  297,400;  308,600;  308,450
338,257;  307,400;  296,600;  243,450
338,339;  300,400;  303,600;  248,450
338,420;  283,400;  304,600;  329,450
338,502;  270,400;  292,600;  292,450
338,584;  275,400;  261,600;  270,450
338,666;  302,400;  293,600;  301,450
338,747;  318,400;  337,600;  324,450
338,829;  314,400;  301,600;  300,450
338,911;  307,400;  281,600;  284,450
338,992;  330,400;  292,600;  299,450
339,074;  299,400;  300,600;  274,450
339,156;  257,400;  308,600;  302,450
339,237;  321,400;  344,600;  320,450
339,319;  282,400;  298,600;  284,450
339,400;  305,400;  301,600;  313,450
339,482;  256,400;  291,600;  259,450
339,564;  269,400;  337,600;  315,450
339,645;  321,400;  283,600;  306,450
339,727;  291,400;  284,600;  278,450
339,808;  315,400;  306,600;  320,450
339,890;  290,400;  285,600;  277,450
339,971;  313,400;  318,600;  299,450
340,053;  325,400;  327,600;  339,450
340,134;  296,400;  287,600;  283,450
340,216;  326,400;  294,600;  302,450
340,297;  289,400;  330,600;  312,450
340,379;  307,400;  344,600;  301,450
340,460;  273,400;  275,600;  299,450
340,542;  288,400;  307,600;  263,450
340,623;  325,400;  306,600;  325,450
340,705;  257,400;  306,600;  262,450
340,786;  312,400;  299,600;  288,450
340,868;  273,400;  299,600;  313,450
340,949;  282,400;  279,600;  269,450
341,030;  355,400;  330,600;  312,450
341,112;  253,400;  256,600;  269,450
341,193;  284,400;  287,600;  248,450
341,274;  309,400;  325,600;  312,450
341,356;  307,400;  329,600;  300,450
341,437;  272,400;  292,600;  284,450
341,518;  287,400;  313,600;  322,450
341,600;  314,400;  321,600;  324,450
341,681;  291,400;  316,600;  308,450
341,762;  306,400;  316,600;  314,450
341,844;  274,400;  271,600;  280,450
341,925;  290,400;  304,600;  329,450
342,006;  327,400;  314,600;  322,450
342,087;  292,400;  291,600;  308,450
342,169;  303,400;  301,600;  297,450
342,250;  271,400;  303,600;  250,450
342,331;  309,400;  291,600;  268,450
342,412;  294,400;  304,600;  283,450
342,493;  296,400;  279,600;  266,450
342,575;  332,400;  298,600;  308,450
342,656;  316,400;  343,600;  319,450
342,737;  319,400;  331,600;  316,450
342,818;  303,400;  319,600;  291,450
342,899;  308,400;  309,600;  295,450
342,980;  326,400;  306,600;  302,450
343,061;  298,400;  297,600;  279,450
343,143;  302,400;  299,600;  310,450
343,224;  300,400;  297,600;  287,450
343,305;  278,400;  294,600;  273,450
343,386;  253,400;  290,600;  295,450
343,467;  315,400;  306,600;  295,450
343,548;  321,400;  307,600;  271,450
343,629;  316,400;  348,600;  311,450
343,710;  305,400;  354,600;  330,450
343,791;  317,400;  296,600;  295,450
343,872;  302,400;  314,600;  271,450
343,953;  321,400;  323,600;  303,450
344,034;  336,400;  307,600;  307,450
344,115;  329,400;  298,600;  295,450
344,196;  309,400;  295,600;  273,450
344,277;  275,400;  282,600;  299,450
344,358;  285,400;  279,600;  295,450
344,439;  278,400;  281,600;  287,450
344,520;  263,400;  310,600;  269,450
344,601;  263,400;  319,600;  332,450
344,681;  308,400;  312,600;  315,450
344,762;  313,400;  275,600;  257,450
344,843;  301,400;  300,600;  255,450
344,924;  330,400;  252,600;  290,450
345,005;  266,400;  269,600;  286,450
345,086;  280,400;  301,600;  289,450
345,167;  239,400;  299,600;  282,450
345,247;  291,400;  305,600;  327,450
345,328;  331,400;  287,600;  317,450
345,409;  317,400;  280,600;  307,450
345,490;  286,400;  314,600;  310,450
345,571;  300,400;  293,600;  295,450
345,651;  266,400;  260,600;  335,450
345,732;  308,400;  303,600;  286,450
345,813;  317,400;  285,600;  291,450
345,894;  251,400;  254,600;  279,450
345,974;  288,400;  346,600;  305,450
346,055;  291,400;  275,600;  291,450
346,136;  292,400;  311,600;  287,450
346,216;  339,400;  312,600;  345,450
346,297;  312,400;  294,600;  289,450
346,378;  302,400;  270,600;  300,450
346,458;  282,400;  299,600;  271,450
346,539;  298,400;  295,600;  315,450
346,620;  330,400;  301,600;  312,450
346,700;  298,400;  302,600;  258,450
346,781;  255,400;  252,600;  260,450
346,861;  305,400;  283,600;  301,450
346,942;  309,400;  273,600;  319,450
347,023;  313,400;  302,600;  306,450
347,103;  307,400;  296,600;  287,450
347,184;  286,400;  321,600;  294,450
347,264;  285,400;  289,600;  310,450
347,345;  263,400;  280,600;  281,450
347,425;  283,400;  270,600;  295,450
347,506;  266,400;  283,600;  283,450
347,586;  285,400;  258,600;  283,450
347,667;  297,400;  316,600;  299,450
347,747;  324,400;  307,600;  304,450
347,828;  306,400;  308,600;  271,450
347,908;  303,400;  307,600;  307,450
347,988;  319,400;  296,600;  251,450
348,069;  295,400;  295,600;  305,450
348,149;  282,400;  303,600;  276,450
348,230;  321,400;  297,600;  301,450
348,310;  302,400;  291,600;  301,450
348,390;  264,400;  285,600;  267,450
348,471;  288,400;  299,600;  270,450
348,551;  289,400;  289,600;  264,450
348,632;  267,400;  288,600;  278,450
348,712;  303,400;  281,600;  278,450
348,792;  354,400;  352,600;  333,450
348,873;  286,400;  293,600;  249,450
348,953;  307,400;  278,600;  330,450
349,033;  284,400;  285,600;  311,450
349,113;  268,400;  278,600;  277,450
349,194;  297,400;  289,600;  310,450
349,274;  311,400;  300,600;  310,450
349,354;  282,400;  288,600;  285,450
349,434;  306,400;  300,600;  299,450
349,515;  290,400;  310,600;  320,450
349,595;  299,400;  308,600;  287,450
349,675;  278,400;  289,600;  299,450
349,755;  287,400;  325,600;  280,450
349,835;  277,400;  305,600;  309,450
349,916;  301,400;  298,600;  284,450
349,996;  274,400;  287,600;  253,450
350,076;  297,400;  286,600;  315,450
350,156;  266,400;  272,600;  280,450
350,236;  317,400;  292,600;  316,450
350,316;  275,400;  296,600;  282,450
350,396;  303,400;  283,600;  306,450
350,476;  271,400;  308,600;  275,450
350,556;  287,400;  275,600;  290,450
350,637;  325,400;  331,600;  312,450
350,717;  288,400;  269,600;  287,450
350,797;  282,400;  307,600;  305,450
350,877;  290,400;  305,600;  323,450
350,957;  302,400;  285,600;  291,450
351,037;  283,400;  303,600;  298,450
351,117;  294,400;  304,600;  275,450
351,197;  299,400;  331,600;  302,450
351,277;  301,400;  328,600;  277,450
351,357;  309,400;  322,600;  293,450
351,437;  312,400;  299,600;  283,450
351,516;  301,400;  337,600;  283,450
351,596;  262,400;  291,600;  329,450
351,676;  279,400;  269,600;  284,450
351,756;  305,400;  308,600;  326,450
351,836;  320,400;  285,600;  329,450
351,916;  267,400;  324,600;  287,450
351,996;  279,400;  313,600;  318,450
352,076;  310,400;  288,600;  302,450
352,156;  309,400;  317,600;  297,450
352,235;  302,400;  310,600;  304,450
352,315;  312,400;  313,600;  339,450
352,395;  310,400;  306,600;  277,450
352,475;  303,400;  339,600;  287,450
352,555;  333,400;  362,600;  344,450
352,634;  335,400;  304,600;  344,450
352,714;  298,400;  310,600;  263,450
352,794;  357,400;  334,600;  364,450
352,874;  308,400;  335,600;  339,450
352,953;  325,400;  336,600;  318,450
353,033;  354,400;  317,600;  344,450
353,113;  347,400;  360,600;  341,450
353,193;  343,400;  314,600;  334,450
353,272;  328,400;  295,600;  329,450
353,352;  299,400;  303,600;  275,450
353,432;  327,400;  324,600;  344,450
353,511;  300,400;  323,600;  302,450
353,591;  310,400;  352,600;  347,450
353,671;  328,400;  335,600;  320,450
353,750;  330,400;  311,600;  311,450
353,830;  302,400;  319,600;  296,450
353,909;  318,400;  335,600;  341,450
353,989;  317,400;  309,600;  297,450
354,069;  310,400;  315,600;  318,450
354,148;  339,400;  341,600;  323,450
354,228;  317,400;  315,600;  300,450
354,307;  353,400;  313,600;  312,450
354,387;  305,400;  316,600;  326,450
354,466;  297,400;  319,600;  299,450
354,546;  324,400;  314,600;  347,450
354,625;  295,400;  341,600;  324,450
354,705;  319,400;  272,600;  330,450
354,784;  311,400;  301,600;  303,450
354,864;  327,400;  309,600;  305,450
354,943;  350,400;  340,600;  339,450
355,023;  302,400;  288,600;  314,450
355,102;  348,400;  337,600;  333,450
355,181;  300,400;  328,600;  329,450
355,261;  348,400;  314,600;  344,450
355,340;  321,400;  301,600;  307,450
355,420;  347,400;  325,600;  327,450
355,499;  314,400;  294,600;  326,450
355,578;  308,400;  321,600;  324,450
355,658;  318,400;  310,600;  346,450
355,737;  339,400;  312,600;  309,450
355,816;  316,400;  330,600;  333,450
355,896;  293,400;  300,600;  301,450
355,975;  304,400;  308,600;  294,450
356,054;  311,400;  316,600;  285,450
356,133;  290,400;  287,600;  314,450
356,213;  284,400;  318,600;  292,450
356,292;  297,400;  297,600;  276,450
356,371;  298,400;  331,600;  297,450
356,451;  350,400;  345,600;  294,450
356,530;  335,400;  357,600;  319,450
356,609;  340,400;  306,600;  286,450
356,688;  313,400;  314,600;  298,450
356,767;  297,400;  299,600;  290,450
356,846;  359,400;  346,600;  295,450
356,926;  302,400;  342,600;  361,450
357,005;  310,400;  332,600;  321,450
357,084;  313,400;  318,600;  321,450
357,163;  319,400;  335,600;  341,450
357,242;  334,400;  286,600;  337,450
357,321;  305,400;  322,600;  296,450
357,400;  297,400;  305,600;  310,450
357,479;  293,400;  336,600;  292,450
357,559;  324,400;  325,600;  314,450
357,638;  303,400;  312,600;  292,450
357,717;  311,400;  322,600;  304,450
357,796;  319,400;  348,600;  323,450
357,875;  307,400;  333,600;  316,450
357,954;  308,400;  312,600;  285,450
358,033;  286,400;  311,600;  278,450
358,112;  308,400;  302,600;  300,450
358,191;  330,400;  313,600;  289,450
358,270;  290,400;  266,600;  300,450
358,349;  282,400;  291,600;  324,450
358,428;  311,400;  321,600;  335,450
358,507;  318,400;  348,600;  306,450
358,585;  311,400;  318,600;  326,450
358,664;  327,400;  318,600;  340,450
358,743;  351,400;  293,600;  304,450
358,822;  362,400;  354,600;  329,450
358,901;  293,400;  275,600;  303,450
358,980;  308,400;  308,600;  299,450
359,059;  332,400;  326,600;  326,450
359,138;  318,400;  308,600;  324,450
359,216;  347,400;  320,600;  314,450
359,295;  305,400;  325,600;  329,450
359,374;  322,400;  335,600;  301,450
359,453;  318,400;  340,600;  315,450
359,532;  307,400;  307,600;  310,450
359,610;  312,400;  315,600;  307,450
359,689;  331,400;  324,600;  330,450
359,768;  293,400;  305,600;  294,450
359,847;  335,400;  313,600;  287,450
359,925;  290,400;  303,600;  315,450
360,004;  292,400;  295,600;  289,450
360,083;  306,400;  299,600;  319,450
360,161;  313,400;  314,600;  285,450
360,240;  280,400;  272,600;  289,450
360,319;  337,400;  323,600;  309,450
360,397;  304,400;  313,600;  320,450
360,476;  341,400;  291,600;  325,450
360,555;  349,400;  334,600;  340,450
360,633;  294,400;  287,600;  300,450
360,712;  323,400;  299,600;  264,450
360,790;  326,400;  314,600;  320,450
360,869;  295,400;  297,600;  296,450
360,948;  299,400;  278,600;  334,450
361,026;  301,400;  321,600;  276,450
361,105;  288,400;  305,600;  290,450
361,183;  317,400;  294,600;  286,450
361,262;  282,400;  300,600;  280,450
361,340;  318,400;  318,600;  297,450
361,419;  257,400;  282,600;  250,450
361,497;  346,400;  300,600;  335,450
361,576;  339,400;  292,600;  315,450
361,654;  337,400;  361,600;  322,450
361,733;  305,400;  320,600;  300,450
361,811;  317,400;  320,600;  311,450
361,890;  323,400;  267,600;  289,450
361,968;  300,400;  269,600;  303,450
362,046;  331,400;  334,600;  321,450
362,125;  341,400;  353,600;  326,450
362,203;  297,400;  297,600;  287,450
362,282;  296,400;  319,600;  338,450
362,360;  326,400;  296,600;  307,450
362,438;  338,400;  310,600;  302,450
362,517;  359,400;  346,600;  347,450
362,595;  345,400;  312,600;  351,450
362,673;  348,400;  323,600;  317,450
362,752;  335,400;  349,600;  327,450
362,830;  347,400;  338,600;  349,450
362,908;  322,400;  310,600;  307,450
362,986;  315,400;  335,600;  315,450
363,065;  294,400;  313,600;  344,450
363,143;  376,400;  354,600;  367,450
363,221;  296,400;  302,600;  288,450
363,299;  345,400;  304,600;  309,450
363,378;  320,400;  297,600;  335,450
363,456;  311,400;  286,600;  316,450
363,534;  314,400;  318,600;  323,450
363,612;  330,400;  320,600;  312,450
363,690;  361,400;  319,600;  344,450
363,769;  350,400;  340,600;  345,450
363,847;  310,400;  308,600;  356,450
363,925;  285,400;  282,600;  303,450
364,003;  355,400;  343,600;  348,450
364,081;  323,400;  323,600;  338,450
364,159;  319,400;  325,600;  330,450
364,237;  311,400;  351,600;  326,450
364,315;  319,400;  306,600;  311,450
364,393;  346,400;  363,600;  340,450
364,471;  352,400;  345,600;  315,450
364,549;  354,400;  344,600;  337,450
364,627;  378,400;  339,600;  321,450
364,705;  340,400;  344,600;  299,450
364,783;  441,400;  417,600;  294,450
364,861; 1018,400; 1050,600;  311,450
364,939; 3607,400; 3619,600;  304,450
365,017;  759,400;  723,600;  298,450
365,095;  380,400;  341,600;  327,450
365,173;  355,400;  398,600;  335,450
365,251;  367,400;  356,600;  345,450
365,329;  534,400;  527,600;  344,450
365,407; 1170,400; 1155,600;  315,450
365,485;  444,400;  464,600;  377,450
365,563;  356,400;  354,600;  339,450
365,641;  340,400;  327,600;  316,450
365,719;  337,400;  361,600;  314,450
365,796;  321,400;  329,600;  309,450
365,874;  378,400;  329,600;  354,450
365,952;  344,400;  334,600;  297,450
366,030;  348,400;  311,600;  318,450
366,108;  313,400;  336,600;  325,450
366,185;  631,400;  644,600;  330,450
366,263;  937,400;  880,600;  333,450
366,341;  368,400;  362,600;  310,450
366,419;  344,400;  335,600;  319,450
366,496;  335,400;  347,600;  336,450
366,574;  320,400;  299,600;  321,450
366,652;  347,400;  381,600;  324,450
366,730;  342,400;  336,600;  375,450
366,807;  330,400;  317,600;  335,450
366,885;  328,400;  315,600;  340,450
366,963;  348,400;  305,600;  332,450
367,040;  366,400;  348,600;  348,450
367,118;  325,400;  315,600;  299,450
367,196;  343,400;  322,600;  355,450
367,273;  318,400;  331,600;  352,450
367,351;  330,400;  314,600;  320,450
367,428;  341,400;  351,600;  360,450
367,506;  337,400;  361,600;  305,450
367,584;  378,400;  352,600;  377,450
367,661;  365,400;  329,600;  332,450
367,739;  317,400;  328,600;  328,450
367,816;  299,400;  343,600;  292,450
367,894;  323,400;  368,600;  312,450
367,971;  309,400;  309,600;  328,450
368,049;  329,400;  376,600;  316,450
368,126;  291,400;  329,600;  318,450
368,204;  334,400;  333,600;  342,450
368,281;  344,400;  375,600;  360,450
368,359;  323,400;  352,600;  332,450
368,436;  337,400;  349,600;  336,450
368,514;  354,400;  344,600;  337,450
368,591;  343,400;  344,600;  347,450
368,668;  354,400;  375,600;  336,450
368,746;  360,400;  387,600;  352,450
368,823;  349,400;  338,600;  380,450
368,901;  351,400;  325,600;  328,450
368,978;  344,400;  329,600;  311,450
369,055;  343,400;  339,600;  332,450
369,133;  358,400;  371,600;  352,450
369,210;  355,400;  328,600;  366,450
369,287;  368,400;  364,600;  366,450
369,365;  336,400;  380,600;  367,450
369,442;  336,400;  347,600;  350,450
369,519;  301,400;  321,600;  298,450
369,596;  334,400;  359,600;  339,450
369,674;  340,400;  327,600;  283,450
369,751;  366,400;  337,600;  371,450
369,828;  352,400;  351,600;  337,450
369,905;  371,400;  358,600;  377,450
369,983;  305,400;  305,600;  327,450
370,060;  332,400;  323,600;  301,450
370,137;  387,400;  394,600;  401,450
370,214;  362,400;  321,600;  374,450
370,291;  344,400;  350,600;  340,450
370,368;  331,400;  356,600;  383,450
370,446;  314,400;  301,600;  350,450
370,523;  342,400;  360,600;  316,450
370,600;  353,400;  368,600;  319,450
370,677;  304,400;  348,600;  332,450
370,754;  322,400;  343,600;  331,450
370,831;  349,400;  352,600;  343,450
370,908;  387,400;  347,600;  374,450
370,985;  315,400;  333,600;  281,450
371,062;  362,400;  341,600;  344,450
371,139;  351,400;  361,600;  363,450
371,216;  349,400;  351,600;  347,450
371,293;  366,400;  329,600;  359,450
371,370;  324,400;  322,600;  314,450
371,447;  359,400;  346,600;  342,450
371,524;  334,400;  346,600;  357,450
371,601;  379,400;  371,600;  341,450
371,678;  359,400;  350,600;  355,450
371,755;  352,400;  366,600;  335,450
371,832;  352,400;  370,600;  375,450
371,909;  311,400;  370,600;  318,450
371,986;  364,400;  371,600;  394,450
372,063;  336,400;  324,600;  329,450
372,140;  356,400;  342,600;  359,450
372,216;  346,400;  356,600;  331,450
372,293;  306,400;  310,600;  347,450
372,370;  362,400;  375,600;  357,450
372,447;  356,400;  329,600;  372,450
372,524;  352,400;  350,600;  371,450
372,601;  363,400;  369,600;  321,450
372,677;  337,400;  344,600;  333,450
372,754;  343,400;  355,600;  360,450
372,831;  360,400;  356,600;  354,450
372,908;  350,400;  380,600;  385,450
372,984;  336,400;  362,600;  356,450
373,061;  339,400;  317,600;  334,450
373,138;  338,400;  367,600;  366,450
373,215;  348,400;  329,600;  317,450
373,291;  315,400;  347,600;  356,450
373,368;  340,400;  378,600;  362,450
373,445;  334,400;  374,600;  345,450
373,521;  347,400;  355,600;  341,450
373,598;  336,400;  354,600;  314,450
373,675;  316,400;  335,600;  358,450
373,751;  340,400;  336,600;  357,450
373,828;  319,400;  338,600;  346,450
373,904;  374,400;  409,600;  394,450
373,981;  322,400;  340,600;  337,450
374,057;  346,400;  343,600;  341,450
374,134;  326,400;  339,600;  316,450
374,211;  374,400;  330,600;  339,450
374,287;  313,400;  336,600;  339,450
374,364;  349,400;  379,600;  370,450
374,440;  323,400;  279,600;  284,450
374,517;  367,400;  367,600;  360,450
374,593;  299,400;  326,600;  299,450
374,670;  323,400;  335,600;  311,450
374,746;  351,400;  347,600;  339,450
374,823;  360,400;  389,600;  364,450
374,899;  360,400;  353,600;  394,450
374,975;  320,400;  336,600;  333,450
375,052;  306,400;  327,600;  327,450
375,128;  330,400;  281,600;  339,450
375,205;  368,400;  346,600;  378,450
375,281;  352,400;  294,600;  331,450
375,357;  346,400;  371,600;  352,450
375,434;  335,400;  313,600;  355,450
375,510;  331,400;  354,600;  323,450
375,586;  362,400;  356,600;  351,450
375,663;  302,400;  314,600;  307,450
375,739;  333,400;  355,600;  380,450
375,815;  336,400;  340,600;  317,450
375,892;  348,400;  340,600;  341,450
375,968;  331,400;  313,600;  325,450
376,044;  339,400;  370,600;  333,450
376,120;  353,400;  311,600;  364,450
376,197;  334,400;  361,600;  328,450
376,273;  342,400;  347,600;  334,450
376,349;  408,400;  386,600;  368,450
376,425;  372,400;  378,600;  336,450
376,501;  355,400;  329,600;  348,450
376,578;  351,400;  332,600;  426,450
376,654;  395,400;  393,600;  365,450
376,730;  358,400;  340,600;  352,450
376,806;  370,400;  346,600;  382,450
376,882;  372,400;  376,600;  332,450
376,958;  358,400;  367,600;  347,450
377,034;  316,400;  320,600;  296,450
377,111;  351,400;  393,600;  358,450
377,187;  387,400;  410,600;  383,450
377,263;  388,400;  397,600;  372,450
377,339;  361,400;  341,600;  319,450
377,415;  350,400;  339,600;  356,450
377,491;  310,400;  362,600;  325,450
377,567;  346,400;  340,600;  369,450
377,643;  358,400;  376,600;  362,450
377,719;  347,400;  368,600;  351,450
377,795;  353,400;  313,600;  350,450
377,871;  385,400;  366,600;  386,450
377,947;  325,400;  343,600;  352,450
378,023;  345,400;  355,600;  339,450
378,099;  370,400;  325,600;  367,450
378,174;  381,400;  364,600;  365,450
378,250;  355,400;  372,600;  389,450
378,326;  359,400;  369,600;  382,450
378,402;  345,400;  359,600;  343,450
378,478;  373,400;  340,600;  355,450
378,554;  363,400;  347,600;  374,450
378,630;  356,400;  369,600;  336,450
378,706;  342,400;  364,600;  321,450
378,781;  371,400;  387,600;  385,450
378,857;  361,400;  359,600;  347,450
378,933;  392,400;  359,600;  335,450
379,009;  334,400;  346,600;  342,450
379,085;  397,400;  419,600;  384,450
379,160;  366,400;  381,600;  366,450
379,236;  367,400;  359,600;  361,450
379,312;  324,400;  337,600;  365,450
379,387;  329,400;  372,600;  349,450
379,463;  355,400;  355,600;  344,450
379,539;  383,400;  408,600;  387,450
379,615;  330,400;  337,600;  364,450
379,690;  376,400;  420,600;  410,450
379,766;  375,400;  389,600;  370,450
379,842;  384,400;  385,600;  366,450
379,917;  406,400;  389,600;  369,450
379,993;  341,400;  370,600;  358,450
380,068;  360,400;  341,600;  349,450
380,144;  386,400;  398,600;  393,450
380,220;  372,400;  388,600;  391,450
380,295;  369,400;  356,600;  356,450
380,371;  383,400;  358,600;  361,450
380,446;  388,400;  418,600;  376,450
380,522;  345,400;  340,600;  360,450
380,597;  366,400;  377,600;  349,450
380,673;  389,400;  395,600;  384,450
380,748;  352,400;  338,600;  344,450
380,824;  362,400;  364,600;  362,450
380,899;  341,400;  371,600;  364,450
380,975;  349,400;  388,600;  402,450
381,050;  339,400;  363,600;  336,450
381,126;  380,400;  370,600;  362,450
381,201;  403,400;  407,600;  405,450
381,277;  367,400;  367,600;  390,450
381,352;  363,400;  389,600;  377,450
381,427;  368,400;  359,600;  370,450
381,503;  370,400;  394,600;  377,450
381,578;  354,400;  363,600;  360,450
381,653;  350,400;  381,600;  387,450
381,729;  384,400;  346,600;  360,450
381,804;  372,400;  373,600;  375,450
381,879;  401,400;  380,600;  366,450
381,955;  341,400;  343,600;  346,450
382,030;  357,400;  346,600;  339,450
382,105;  368,400;  372,600;  372,450
382,181;  360,400;  382,600;  367,450
382,256;  345,400;  373,600;  383,450
382,331;  345,400;  371,600;  375,450
382,406;  349,400;  368,600;  343,450
382,482;  320,400;  371,600;  380,450
382,557;  380,400;  362,600;  335,450
382,632;  397,400;  364,600;  365,450
382,707;  341,400;  393,600;  349,450
382,782;  381,400;  395,600;  385,450
382,857;  338,400;  373,600;  356,450
382,933;  364,400;  354,600;  349,450
383,008;  347,400;  325,600;  336,450
383,083;  363,400;  382,600;  360,450
383,158;  377,400;  375,600;  368,450
383,233;  345,400;  368,600;  362,450
383,308;  342,400;  360,600;  326,450
383,383;  386,400;  394,600;  390,450
383,458;  318,400;  344,600;  340,450
383,533;  331,400;  331,600;  334,450
383,608;  361,400;  367,600;  381,450
383,683;  381,400;  381,600;  367,450
383,758;  369,400;  398,600;  353,450
383,833;  381,400;  343,600;  350,450
383,908;  324,400;  321,600;  367,450
383,983;  341,400;  365,600;  328,450
384,058;  369,400;  340,600;  383,450
384,133;  377,400;  372,600;  376,450
384,208;  377,400;  395,600;  375,450
384,283;  364,400;  362,600;  321,450
384,358;  373,400;  392,600;  390,450
384,433;  353,400;  347,600;  341,450
384,508;  379,400;  339,600;  338,450
384,583;  385,400;  337,600;  355,450
384,658;  362,400;  352,600;  366,450
384,732;  337,400;  329,600;  319,450
384,807;  385,400;  347,600;  366,450
384,882;  370,400;  391,600;  349,450
384,957;  349,400;  348,600;  345,450
385,032;  359,400;  383,600;  373,450
385,106;  327,400;  342,600;  369,450
385,181;  385,400;  353,600;  359,450
385,256;  359,400;  367,600;  336,450
385,331;  347,400;  375,600;  364,450
385,405;  378,400;  383,600;  400,450
385,480;  352,400;  362,600;  372,450
385,555;  377,400;  402,600;  399,450
385,630;  396,400;  369,600;  370,450
385,704;  380,400;  353,600;  390,450
385,779;  341,400;  363,600;  368,450
385,854;  372,400;  364,600;  380,450
385,928;  345,400;  348,600;  365,450
386,003;  404,400;  390,600;  397,450
386,078;  364,400;  374,600;  369,450
386,152;  395,400;  391,600;  412,450
386,227;  364,400;  347,600;  354,450
386,301;  403,400;  389,600;  348,450
386,376;  354,400;  352,600;  346,450
386,450;  360,400;  356,600;  374,450
386,525;  368,400;  357,600;  376,450
386,600;  388,400;  367,600;  381,450
386,674;  366,400;  374,600;  364,450
386,749;  353,400;  395,600;  359,450
386,823;  384,400;  363,600;  377,450
386,898;  380,400;  386,600;  374,450
386,972;  388,400;  383,600;  354,450
387,047;  339,400;  368,600;  364,450
387,121;  367,400;  375,600;  363,450
387,195;  346,400;  359,600;  352,450
387,270;  386,400;  384,600;  385,450
387,344;  384,400;  429,600;  393,450
387,419;  400,400;  367,600;  412,450
387,493;  384,400;  371,600;  377,450
387,567;  357,400;  351,600;  336,450
387,642;  389,400;  383,600;  402,450
387,716;  400,400;  368,600;  378,450
387,790;  346,400;  337,600;  366,450
387,865;  384,400;  351,600;  364,450
387,939;  383,400;  405,600;  406,450
388,013;  365,400;  377,600;  417,450
388,088;  356,400;  361,600;  363,450
388,162;  371,400;  366,600;  355,450
388,236;  350,400;  381,600;  416,450
388,310;  350,400;  368,600;  361,450
388,385;  397,400;  324,600;  400,450
388,459;  380,400;  362,600;  379,450
388,533;  346,400;  378,600;  365,450
388,607;  357,400;  374,600;  378,450
388,682;  383,400;  369,600;  394,450
388,756;  343,400;  375,600;  378,450
388,830;  406,400;  378,600;  413,450
388,904;  369,400;  382,600;  382,450
388,978;  355,400;  368,600;  361,450
389,052;  394,400;  390,600;  343,450
389,126;  374,400;  353,600;  387,450
389,200;  385,400;  376,600;  362,450
389,275;  365,400;  382,600;  389,450
389,349;  376,400;  405,600;  380,450
389,423;  371,400;  380,600;  369,450
389,497;  377,400;  426,600;  377,450
389,571;  395,400;  391,600;  375,450
389,645;  367,400;  378,600;  388,450
389,719;  344,400;  384,600;  388,450
389,793;  308,400;  341,600;  322,450
389,867;  379,400;  410,600;  386,450
389,941;  378,400;  367,600;  369,450
390,015;  374,400;  348,600;  372,450
390,089;  346,400;  369,600;  344,450
390,163;  364,400;  368,600;  375,450
390,237;  364,400;  356,600;  361,450
390,310;  367,400;  393,600;  366,450
390,384;  365,400;  383,600;  344,450
390,458;  395,400;  414,600;  432,450
390,532;  366,400;  401,600;  395,450
390,606;  388,400;  361,600;  328,450
390,680;  372,400;  354,600;  373,450
390,754;  355,400;  373,600;  342,450
390,827;  382,400;  382,600;  388,450
390,901;  359,400;  362,600;  377,450
390,975;  362,400;  366,600;  368,450
391,049;  350,400;  374,600;  392,450
391,123;  332,400;  342,600;  367,450
391,196;  335,400;  344,600;  368,450
391,270;  384,400;  372,600;  366,450
391,344;  365,400;  384,600;  374,450
391,418;  347,400;  368,600;  366,450
391,491;  324,400;  362,600;  365,450
391,565;  358,400;  341,600;  346,450
391,639;  378,400;  379,600;  381,450
391,712;  353,400;  373,600;  385,450
391,786;  378,400;  401,600;  429,450
391,860;  342,400;  354,600;  354,450
391,933;  329,400;  366,600;  333,450
392,007;  341,400;  393,600;  364,450
392,081;  371,400;  404,600;  366,450
392,154;  389,400;  366,600;  394,450
392,228;  393,400;  392,600;  387,450
392,301;  347,400;  366,600;  402,450
392,375;  373,400;  394,600;  406,450
392,448;  366,400;  397,600;  375,450
392,522;  379,400;  382,600;  383,450
392,595;  345,400;  389,600;  365,450
392,669;  364,400;  386,600;  367,450
392,742;  387,400;  378,600;  401,450
392,816;  417,400;  376,600;  383,450
392,889;  386,400;  392,600;  401,450
392,963;  389,400;  400,600;  382,450
393,036;  380,400;  366,600;  401,450
393,110;  404,400;  388,600;  376,450
393,183;  391,400;  407,600;  399,450
393,257;  385,400;  437,600;  408,450
393,330;  373,400;  373,600;  391,450
393,403;  384,400;  410,600;  372,450
393,477;  332,400;  347,600;  364,450
393,550;  388,400;  413,600;  387,450
393,623;  383,400;  374,600;  402,450
393,697;  409,400;  404,600;  411,450
393,770;  364,400;  386,600;  364,450
393,843;  424,400;  419,600;  412,450
393,917;  360,400;  400,600;  407,450
393,990;  388,400;  378,600;  395,450
394,063;  403,400;  403,600;  375,450
394,136;  408,400;  390,600;  390,450
394,210;  388,400;  393,600;  380,450
394,283;  382,400;  385,600;  395,450
394,356;  396,400;  410,600;  373,450
394,429;  380,400;  399,600;  357,450
394,502;  374,400;  404,600;  373,450
394,576;  394,400;  416,600;  404,450
394,649;  393,400;  376,600;  381,450
394,722;  390,400;  390,600;  390,450
394,795;  402,400;  413,600;  406,450
394,868;  373,400;  369,600;  390,450
394,941;  365,400;  371,600;  368,450
395,014;  423,400;  419,600;  416,450
395,088;  421,400;  404,600;  391,450
395,161;  421,400;  402,600;  399,450
395,234;  407,400;  390,600;  397,450
395,307;  397,400;  413,600;  388,450
395,380;  388,400;  393,600;  392,450
395,453;  427,400;  439,600;  425,450
395,526;  397,400;  430,600;  407,450
395,599;  400,400;  422,600;  432,450
395,672;  359,400;  378,600;  408,450
395,745;  396,400;  400,600;  390,450
395,818;  356,400;  385,600;  376,450
395,891;  389,400;  408,600;  379,450
395,964;  400,400;  398,600;  436,450
396,036;  388,400;  400,600;  390,450
396,109;  376,400;  399,600;  381,450
396,182;  366,400;  392,600;  382,450
396,255;  401,400;  417,600;  383,450
396,328;  412,400;  412,600;  432,450
396,401;  372,400;  363,600;  381,450
396,474;  388,400;  399,600;  360,450
396,547;  399,400;  411,600;  417,450
396,619;  413,400;  384,600;  393,450
396,692;  412,400;  371,600;  354,450
396,765;  368,400;  375,600;  376,450
396,838;  384,400;  367,600;  390,450
396,911;  388,400;  363,600;  352,450
396,983;  413,400;  385,600;  396,450
397,056;  368,400;  375,600;  367,450
397,129;  380,400;  369,600;  368,450
397,201;  388,400;  413,600;  395,450
397,274;  388,400;  379,600;  382,450
397,347;  337,400;  364,600;  378,450
397,420;  372,400;  373,600;  379,450
397,492;  378,400;  404,600;  380,450
397,565;  376,400;  372,600;  365,450
397,637;  364,400;  371,600;  361,450
397,710;  345,400;  349,600;  341,450
397,783;  402,400;  444,600;  401,450
397,855;  325,400;  363,600;  346,450
397,928;  356,400;  381,600;  330,450
398,000;  390,400;  369,600;  384,450
398,073;  373,400;  376,600;  372,450
398,146;  371,400;  365,600;  358,450
398,218;  353,400;  417,600;  363,450
398,291;  380,400;  398,600;  385,450
398,363;  395,400;  370,600;  358,450
398,436;  369,400;  369,600;  360,450
398,508;  392,400;  378,600;  369,450
398,581;  393,400;  368,600;  367,450
398,653;  364,400;  318,600;  382,450
398,726;  364,400;  376,600;  371,450
398,798;  385,400;  390,600;  376,450
398,870;  400,400;  374,600;  374,450
398,943;  377,400;  371,600;  357,450
399,015;  352,400;  362,600;  383,450
399,088;  390,400;  377,600;  373,450
399,160;  373,400;  370,600;  348,450
399,232;  360,400;  332,600;  349,450
399,305;  367,400;  379,600;  362,450
399,377;  374,400;  350,600;  343,450
399,449;  385,400;  398,600;  388,450
399,522;  433,400;  442,600;  416,450
399,594;  364,400;  359,600;  346,450
399,666;  376,400;  393,600;  361,450
399,738;  383,400;  378,600;  375,450
399,811;  379,400;  370,600;  388,450
399,883;  381,400;  392,600;  378,450
399,955;  384,400;  429,600;  331,450
400,027;  340,400;  342,600;  364,450
400,100;  396,400;  402,600;  427,450
400,172;  322,400;  360,600;  354,450
400,244;  397,400;  369,600;  361,450
400,316;  356,400;  396,600;  381,450
400,388;  396,400;  408,600;  368,450
400,460;  372,400;  350,600;  359,450
400,532;  349,400;  329,600;  337,450
400,605;  361,400;  378,600;  368,450
400,677;  362,400;  389,600;  380,450
400,749;  380,400;  403,600;  406,450
400,821;  392,400;  384,600;  385,450
400,893;  353,400;  364,600;  384,450
400,965;  415,400;  390,600;  380,450
401,037;  373,400;  376,600;  402,450
401,109;  358,400;  363,600;  365,450
401,181;  386,400;  383,600;  398,450

