p
Integration time [ms]:   0,150
Averaging Nr. [scans]: 1
Smoothing Nr. [pixels]: 0
Data measured with spectrometer [name]: 7416147SP
Wave   ;Sample   ;Dark     ;Reference
[nm]   ;[counts] ;[counts] ;[counts] 

230,218;  304,925;  284,600;  274,450
230,311;  295,925;  306,600;  296,450
230,404;  289,925;  298,600;  326,450
230,497;  300,925;  295,600;  309,450
230,591;  322,925;  342,600;  328,450
230,684;  317,925;  317,600;  333,450
230,777;  315,925;  318,600;  312,450
230,870;  326,925;  330,600;  321,450
230,964;  319,925;  321,600;  306,450
231,057;  370,925;  306,600;  332,450
231,150;  330,925;  320,600;  304,450
231,243;  299,925;  310,600;  310,450
231,336;  350,925;  334,600;  326,450
231,430;  311,925;  320,600;  279,450
231,523;  302,925;  346,600;  304,450
231,616;  316,925;  297,600;  290,450
231,709;  333,925;  328,600;  315,450
231,802;  290,925;  280,600;  295,450
231,895;  325,925;  293,600;  313,450
231,988;  332,925;  312,600;  320,450
232,082;  281,925;  316,600;  281,450
232,175;  304,925;  289,600;  279,450
232,268;  290,925;  319,600;  301,450
232,361;  348,925;  288,600;  264,450
232,454;  325,925;  297,600;  320,450
232,547;  338,925;  333,600;  272,450
232,640;  311,925;  314,600;  287,450
232,733;  334,925;  297,600;  300,450
232,826;  317,925;  303,600;  270,450
232,919;  322,925;  318,600;  294,450
233,012;  304,925;  322,600;  292,450
233,105;  323,925;  318,600;  283,450
233,199;  314,925;  324,600;  298,450
233,292;  290,925;  293,600;  307,450
233,385;  246,925;  262,600;  233,450
233,478;  303,925;  302,600;  272,450
233,571;  335,925;  314,600;  293,450
233,664;  312,925;  341,600;  283,450
233,757;  296,925;  254,600;  231,450
233,850;  290,925;  272,600;  248,450
233,943;  287,925;  298,600;  272,450
234,035;  299,925;  318,600;  292,450
234,128;  281,925;  282,600;  265,450
234,221;  287,925;  310,600;  293,450
234,314;  356,925;  333,600;  318,450
234,407;  311,925;  338,600;  286,450
234,500;  279,925;  286,600;  280,450
234,593;  278,925;  280,600;  290,450
234,686;  309,925;  276,600;  256,450
234,779;  309,925;  270,600;  275,450
234,872;  289,925;  276,600;  261,450
234,965;  275,925;  298,600;  286,450
235,058;  288,925;  269,600;  263,450
235,150;  296,925;  311,600;  286,450
235,243;  278,925;  280,600;  311,450
235,336;  324,925;  317,600;  296,450
235,429;  275,925;  258,600;  241,450
235,522;  335,925;  352,600;  293,450
235,615;  279,925;  309,600;  253,450
235,707;  312,925;  289,600;  277,450
235,800;  277,925;  302,600;  268,450
235,893;  287,925;  328,600;  262,450
235,986;  321,925;  305,600;  312,450
236,079;  293,925;  310,600;  308,450
236,171;  265,925;  272,600;  270,450
236,264;  326,925;  310,600;  282,450
236,357;  305,925;  289,600;  297,450
236,450;  300,925;  314,600;  308,450
236,542;  278,925;  286,600;  258,450
236,635;  312,925;  319,600;  287,450
236,728;  308,925;  276,600;  273,450
236,821;  304,925;  270,600;  268,450
236,913;  297,925;  326,600;  268,450
237,006;  264,925;  300,600;  257,450
237,099;  299,925;  289,600;  271,450
237,191;  295,925;  345,600;  288,450
237,284;  263,925;  256,600;  282,450
237,377;  294,925;  294,600;  312,450
237,470;  301,925;  291,600;  256,450
237,562;  299,925;  266,600;  261,450
237,655;  325,925;  342,600;  294,450
237,747;  321,925;  325,600;  263,450
237,840;  320,925;  292,600;  302,450
237,933;  306,925;  327,600;  284,450
238,025;  323,925;  338,600;  306,450
238,118;  258,925;  306,600;  287,450
238,211;  292,925;  282,600;  227,450
238,303;  285,925;  277,600;  273,450
238,396;  278,925;  289,600;  270,450
238,488;  327,925;  300,600;  281,450
238,581;  286,925;  306,600;  235,450
238,673;  291,925;  304,600;  273,450
238,766;  298,925;  268,600;  282,450
238,859;  256,925;  282,600;  277,450
238,951;  303,925;  295,600;  280,450
239,044;  294,925;  270,600;  283,450
239,136;  313,925;  269,600;  284,450
239,229;  288,925;  297,600;  291,450
239,321;  285,925;  262,600;  248,450
239,414;  299,925;  289,600;  288,450
239,506;  316,925;  280,600;  267,450
239,599;  310,925;  352,600;  292,450
239,691;  289,925;  306,600;  269,450
239,784;  310,925;  296,600;  288,450
239,876;  337,925;  280,600;  288,450
239,969;  293,925;  287,600;  281,450
240,061;  268,925;  277,600;  262,450
240,153;  276,925;  260,600;  278,450
240,246;  276,925;  295,600;  292,450
240,338;  308,925;  309,600;  324,450
240,431;  286,925;  277,600;  282,450
240,523;  281,925;  300,600;  237,450
240,615;  277,925;  293,600;  321,450
240,708;  331,925;  355,600;  292,450
240,800;  291,925;  302,600;  288,450
240,893;  272,925;  274,600;  261,450
240,985;  294,925;  321,600;  270,450
241,077;  270,925;  268,600;  262,450
241,170;  331,925;  313,600;  286,450
241,262;  297,925;  284,600;  284,450
241,354;  265,925;  246,600;  244,450
241,447;  316,925;  286,600;  271,450
241,539;  258,925;  295,600;  247,450
241,631;  325,925;  312,600;  279,450
241,724;  240,925;  261,600;  246,450
241,816;  268,925;  258,600;  264,450
241,908;  273,925;  278,600;  263,450
242,000;  270,925;  283,600;  263,450
242,093;  284,925;  303,600;  261,450
242,185;  271,925;  306,600;  269,450
242,277;  275,925;  282,600;  242,450
242,369;  266,925;  278,600;  269,450
242,462;  276,925;  271,600;  247,450
242,554;  295,925;  253,600;  266,450
242,646;  251,925;  282,600;  270,450
242,738;  303,925;  320,600;  281,450
242,830;  232,925;  292,600;  230,450
242,923;  291,925;  309,600;  303,450
243,015;  287,925;  288,600;  269,450
243,107;  271,925;  280,600;  253,450
243,199;  217,925;  309,600;  300,450
243,291;  277,925;  319,600;  253,450
243,383;  253,925;  240,600;  273,450
243,476;  293,925;  257,600;  282,450
243,568;  297,925;  293,600;  284,450
243,660;  286,925;  260,600;  268,450
243,752;  290,925;  305,600;  270,450
243,844;  292,925;  299,600;  284,450
243,936;  298,925;  316,600;  299,450
244,028;  332,925;  332,600;  290,450
244,120;  266,925;  267,600;  230,450
244,212;  304,925;  298,600;  289,450
244,305;  247,925;  267,600;  270,450
244,397;  304,925;  315,600;  267,450
244,489;  325,925;  303,600;  285,450
244,581;  302,925;  301,600;  279,450
244,673;  251,925;  286,600;  252,450
244,765;  301,925;  277,600;  293,450
244,857;  305,925;  303,600;  251,450
244,949;  266,925;  305,600;  282,450
245,041;  262,925;  250,600;  223,450
245,133;  269,925;  294,600;  292,450
245,225;  268,925;  258,600;  248,450
245,317;  280,925;  253,600;  267,450
245,409;  272,925;  282,600;  263,450
245,501;  306,925;  286,600;  265,450
245,593;  294,925;  328,600;  278,450
245,685;  289,925;  330,600;  286,450
245,776;  273,925;  298,600;  267,450
245,868;  299,925;  308,600;  263,450
245,960;  250,925;  242,600;  252,450
246,052;  312,925;  291,600;  307,450
246,144;  316,925;  282,600;  285,450
246,236;  260,925;  296,600;  257,450
246,328;  293,925;  285,600;  287,450
246,420;  280,925;  282,600;  270,450
246,512;  327,925;  303,600;  295,450
246,604;  303,925;  280,600;  278,450
246,695;  281,925;  275,600;  268,450
246,787;  310,925;  288,600;  299,450
246,879;  309,925;  296,600;  275,450
246,971;  295,925;  305,600;  285,450
247,063;  273,925;  281,600;  253,450
247,155;  294,925;  295,600;  240,450
247,246;  280,925;  305,600;  285,450
247,338;  288,925;  297,600;  287,450
247,430;  303,925;  298,600;  312,450
247,522;  312,925;  294,600;  294,450
247,613;  296,925;  287,600;  278,450
247,705;  299,925;  302,600;  286,450
247,797;  309,925;  322,600;  301,450
247,889;  315,925;  294,600;  286,450
247,980;  317,925;  318,600;  273,450
248,072;  327,925;  315,600;  275,450
248,164;  345,925;  368,600;  297,450
248,256;  296,925;  280,600;  302,450
248,347;  299,925;  312,600;  275,450
248,439;  282,925;  302,600;  260,450
248,531;  301,925;  301,600;  297,450
248,622;  300,925;  315,600;  318,450
248,714;  291,925;  303,600;  257,450
248,806;  311,925;  301,600;  287,450
248,897;  296,925;  266,600;  290,450
248,989;  280,925;  260,600;  246,450
249,081;  269,925;  291,600;  305,450
249,172;  313,925;  289,600;  264,450
249,264;  273,925;  310,600;  303,450
249,356;  295,925;  274,600;  253,450
249,447;  267,925;  287,600;  283,450
249,539;  298,925;  289,600;  288,450
249,630;  282,925;  296,600;  286,450
249,722;  314,925;  310,600;  305,450
249,813;  323,925;  302,600;  256,450
249,905;  309,925;  319,600;  291,450
249,997;  292,925;  270,600;  248,450
250,088;  288,925;  295,600;  285,450
250,180;  304,925;  280,600;  288,450
250,271;  327,925;  296,600;  268,450
250,363;  366,925;  329,600;  307,450
250,454;  281,925;  268,600;  238,450
250,546;  291,925;  271,600;  272,450
250,637;  277,925;  285,600;  242,450
250,729;  267,925;  267,600;  250,450
250,820;  324,925;  306,600;  297,450
250,912;  274,925;  299,600;  243,450
251,003;  321,925;  285,600;  296,450
251,095;  280,925;  296,600;  273,450
251,186;  295,925;  269,600;  253,450
251,277;  295,925;  276,600;  290,450
251,369;  280,925;  295,600;  275,450
251,460;  288,925;  272,600;  272,450
251,552;  293,925;  293,600;  292,450
251,643;  279,925;  292,600;  276,450
251,735;  271,925;  303,600;  241,450
251,826;  291,925;  313,600;  259,450
251,917;  337,925;  325,600;  258,450
252,009;  296,925;  338,600;  254,450
252,100;  301,925;  343,600;  266,450
252,191;  323,925;  337,600;  260,450
252,283;  329,925;  328,600;  299,450
252,374;  392,925;  372,600;  289,450
252,465;  383,925;  390,600;  301,450
252,557;  390,925;  393,600;  251,450
252,648;  385,925;  378,600;  258,450
252,739;  404,925;  397,600;  267,450
252,831;  409,925;  439,600;  250,450
252,922;  429,925;  440,600;  266,450
253,013;  488,925;  520,600;  241,450
253,104;  554,925;  576,600;  255,450
253,196;  703,925;  712,600;  265,450
253,287;  756,925;  807,600;  289,450
253,378; 1214,925; 1233,600;  257,450
253,469; 4209,925; 4083,600;  246,450
253,561;23184,926;23239,600;  253,450
253,652;42409,926;42949,602;  272,450
253,743; 5837,925; 5893,600;  210,450
253,834;  616,925;  622,600;  260,450
253,926;  472,925;  531,600;  249,450
254,017;  473,925;  459,600;  280,450
254,108;  456,925;  528,600;  290,450
254,199;  396,925;  418,600;  277,450
254,290;  467,925;  380,600;  290,450
254,381;  411,925;  429,600;  276,450
254,472;  418,925;  437,600;  250,450
254,564;  441,925;  411,600;  327,450
254,655;  375,925;  392,600;  304,450
254,746;  337,925;  345,600;  225,450
254,837;  381,925;  372,600;  282,450
254,928;  346,925;  368,600;  247,450
255,019;  370,925;  375,600;  281,450
255,110;  365,925;  357,600;  302,450
255,201;  364,925;  318,600;  284,450
255,292;  354,925;  381,600;  271,450
255,383;  346,925;  347,600;  265,450
255,474;  348,925;  329,600;  248,450
255,566;  386,925;  366,600;  271,450
255,657;  361,925;  350,600;  306,450
255,748;  298,925;  292,600;  235,450
255,839;  342,925;  331,600;  282,450
255,930;  319,925;  292,600;  302,450
256,021;  314,925;  336,600;  297,450
256,112;  302,925;  296,600;  257,450
256,203;  350,925;  339,600;  315,450
256,294;  328,925;  321,600;  265,450
256,384;  333,925;  279,600;  261,450
256,475;  276,925;  289,600;  284,450
256,566;  316,925;  297,600;  274,450
256,657;  258,925;  291,600;  267,450
256,748;  253,925;  302,600;  280,450
256,839;  298,925;  281,600;  274,450
256,930;  295,925;  278,600;  260,450
257,021;  329,925;  328,600;  283,450
257,112;  338,925;  311,600;  327,450
257,203;  300,925;  268,600;  240,450
257,294;  242,925;  276,600;  257,450
257,385;  325,925;  284,600;  272,450
257,475;  298,925;  277,600;  255,450
257,566;  306,925;  313,600;  267,450
257,657;  325,925;  339,600;  264,450
257,748;  280,925;  283,600;  252,450
257,839;  282,925;  319,600;  306,450
257,930;  292,925;  276,600;  275,450
258,020;  290,925;  278,600;  281,450
258,111;  266,925;  285,600;  256,450
258,202;  271,925;  309,600;  258,450
258,293;  272,925;  267,600;  255,450
258,384;  281,925;  329,600;  295,450
258,474;  280,925;  296,600;  244,450
258,565;  270,925;  250,600;  252,450
258,656;  333,925;  306,600;  257,450
258,747;  275,925;  293,600;  255,450
258,837;  288,925;  266,600;  231,450
258,928;  291,925;  247,600;  280,450
259,019;  286,925;  272,600;  264,450
259,109;  294,925;  264,600;  254,450
259,200;  289,925;  292,600;  291,450
259,291;  269,925;  246,600;  297,450
259,381;  309,925;  309,600;  264,450
259,472;  284,925;  299,600;  272,450
259,563;  322,925;  307,600;  273,450
259,653;  306,925;  281,600;  247,450
259,744;  284,925;  280,600;  260,450
259,835;  318,925;  284,600;  274,450
259,925;  267,925;  257,600;  276,450
260,016;  316,925;  303,600;  282,450
260,107;  278,925;  264,600;  265,450
260,197;  301,925;  279,600;  258,450
260,288;  268,925;  263,600;  273,450
260,378;  289,925;  274,600;  244,450
260,469;  269,925;  299,600;  273,450
260,560;  256,925;  267,600;  276,450
260,650;  270,925;  269,600;  265,450
260,741;  281,925;  279,600;  256,450
260,831;  276,925;  246,600;  276,450
260,922;  284,925;  271,600;  258,450
261,012;  279,925;  271,600;  256,450
261,103;  304,925;  320,600;  294,450
261,193;  312,925;  317,600;  320,450
261,284;  305,925;  256,600;  254,450
261,374;  301,925;  295,600;  253,450
261,465;  291,925;  321,600;  304,450
261,555;  313,925;  271,600;  275,450
261,646;  293,925;  290,600;  300,450
261,736;  294,925;  265,600;  287,450
261,827;  306,925;  293,600;  256,450
261,917;  323,925;  294,600;  344,450
262,007;  290,925;  269,600;  289,450
262,098;  278,925;  334,600;  256,450
262,188;  348,925;  316,600;  305,450
262,279;  290,925;  290,600;  292,450
262,369;  305,925;  276,600;  282,450
262,459;  306,925;  262,600;  260,450
262,550;  334,925;  314,600;  290,450
262,640;  293,925;  261,600;  274,450
262,731;  290,925;  302,600;  298,450
262,821;  322,925;  287,600;  323,450
262,911;  316,925;  312,600;  268,450
263,002;  300,925;  278,600;  271,450
263,092;  318,925;  292,600;  309,450
263,182;  294,925;  280,600;  257,450
263,273;  268,925;  277,600;  261,450
263,363;  303,925;  309,600;  284,450
263,453;  265,925;  266,600;  259,450
263,543;  314,925;  289,600;  326,450
263,634;  246,925;  263,600;  262,450
263,724;  271,925;  278,600;  276,450
263,814;  325,925;  304,600;  288,450
263,904;  296,925;  270,600;  267,450
263,995;  318,925;  306,600;  321,450
264,085;  298,925;  301,600;  259,450
264,175;  297,925;  284,600;  306,450
264,265;  338,925;  305,600;  298,450
264,356;  265,925;  260,600;  289,450
264,446;  316,925;  296,600;  298,450
264,536;  310,925;  270,600;  297,450
264,626;  314,925;  315,600;  295,450
264,716;  286,925;  330,600;  277,450
264,806;  322,925;  327,600;  306,450
264,897;  259,925;  255,600;  273,450
264,987;  312,925;  310,600;  286,450
265,077;  318,925;  297,600;  285,450
265,167;  384,925;  394,600;  346,450
265,257;  310,925;  333,600;  273,450
265,347;  319,925;  331,600;  286,450
265,437;  325,925;  304,600;  289,450
265,527;  296,925;  314,600;  292,450
265,617;  255,925;  292,600;  265,450
265,708;  312,925;  330,600;  308,450
265,798;  277,925;  315,600;  301,450
265,888;  304,925;  275,600;  270,450
265,978;  303,925;  274,600;  242,450
266,068;  325,925;  291,600;  316,450
266,158;  287,925;  288,600;  254,450
266,248;  234,925;  305,600;  248,450
266,338;  305,925;  307,600;  293,450
266,428;  291,925;  294,600;  259,450
266,518;  302,925;  321,600;  320,450
266,608;  329,925;  245,600;  273,450
266,698;  260,925;  284,600;  256,450
266,788;  278,925;  263,600;  248,450
266,878;  347,925;  350,600;  317,450
266,968;  292,925;  282,600;  304,450
267,058;  298,925;  280,600;  292,450
267,147;  301,925;  327,600;  300,450
267,237;  240,925;  293,600;  276,450
267,327;  287,925;  292,600;  276,450
267,417;  295,925;  320,600;  264,450
267,507;  300,925;  297,600;  294,450
267,597;  274,925;  273,600;  272,450
267,687;  283,925;  268,600;  286,450
267,777;  315,925;  267,600;  270,450
267,867;  305,925;  321,600;  296,450
267,956;  317,925;  282,600;  257,450
268,046;  286,925;  306,600;  298,450
268,136;  305,925;  265,600;  291,450
268,226;  259,925;  269,600;  261,450
268,316;  278,925;  266,600;  262,450
268,406;  286,925;  268,600;  338,450
268,495;  302,925;  278,600;  259,450
268,585;  286,925;  304,600;  263,450
268,675;  269,925;  296,600;  260,450
268,765;  290,925;  296,600;  287,450
268,854;  268,925;  277,600;  291,450
268,944;  270,925;  288,600;  299,450
269,034;  278,925;  313,600;  279,450
269,124;  304,925;  283,600;  286,450
269,213;  302,925;  277,600;  255,450
269,303;  303,925;  290,600;  247,450
269,393;  276,925;  265,600;  307,450
269,483;  310,925;  338,600;  273,450
269,572;  255,925;  295,600;  243,450
269,662;  270,925;  286,600;  301,450
269,752;  329,925;  320,600;  299,450
269,841;  249,925;  270,600;  247,450
269,931;  288,925;  264,600;  276,450
270,021;  299,925;  299,600;  295,450
270,110;  282,925;  286,600;  268,450
270,200;  296,925;  329,600;  299,450
270,289;  258,925;  258,600;  279,450
270,379;  309,925;  315,600;  282,450
270,469;  295,925;  297,600;  273,450
270,558;  278,925;  300,600;  286,450
270,648;  285,925;  266,600;  245,450
270,737;  306,925;  288,600;  271,450
270,827;  324,925;  279,600;  263,450
270,916;  277,925;  266,600;  280,450
271,006;  270,925;  287,600;  287,450
271,096;  366,925;  312,600;  334,450
271,185;  278,925;  307,600;  299,450
271,275;  307,925;  305,600;  279,450
271,364;  294,925;  300,600;  286,450
271,454;  306,925;  301,600;  273,450
271,543;  298,925;  295,600;  279,450
271,633;  276,925;  293,600;  257,450
271,722;  297,925;  240,600;  257,450
271,812;  296,925;  255,600;  299,450
271,901;  296,925;  276,600;  286,450
271,990;  292,925;  293,600;  267,450
272,080;  317,925;  282,600;  284,450
272,169;  302,925;  339,600;  288,450
272,259;  275,925;  319,600;  275,450
272,348;  273,925;  291,600;  305,450
272,438;  281,925;  302,600;  301,450
272,527;  294,925;  288,600;  290,450
272,616;  290,925;  295,600;  300,450
272,706;  335,925;  319,600;  313,450
272,795;  312,925;  285,600;  290,450
272,884;  294,925;  302,600;  294,450
272,974;  330,925;  281,600;  279,450
273,063;  376,925;  361,600;  290,450
273,152;  293,925;  299,600;  296,450
273,242;  315,925;  296,600;  311,450
273,331;  310,925;  306,600;  299,450
273,420;  282,925;  296,600;  313,450
273,510;  291,925;  292,600;  311,450
273,599;  288,925;  323,600;  312,450
273,688;  345,925;  311,600;  299,450
273,778;  244,925;  266,600;  259,450
273,867;  314,925;  287,600;  312,450
273,956;  307,925;  303,600;  273,450
274,045;  279,925;  263,600;  236,450
274,135;  324,925;  317,600;  317,450
274,224;  281,925;  316,600;  295,450
274,313;  330,925;  299,600;  294,450
274,402;  289,925;  263,600;  266,450
274,491;  319,925;  277,600;  286,450
274,581;  281,925;  302,600;  266,450
274,670;  288,925;  311,600;  303,450
274,759;  288,925;  303,600;  283,450
274,848;  302,925;  275,600;  301,450
274,937;  287,925;  276,600;  293,450
275,026;  258,925;  298,600;  255,450
275,116;  309,925;  323,600;  309,450
275,205;  287,925;  263,600;  231,450
275,294;  344,925;  333,600;  302,450
275,383;  333,925;  253,600;  278,450
275,472;  290,925;  286,600;  299,450
275,561;  296,925;  299,600;  300,450
275,650;  313,925;  289,600;  281,450
275,739;  301,925;  268,600;  287,450
275,828;  272,925;  262,600;  259,450
275,917;  308,925;  318,600;  305,450
276,006;  289,925;  255,600;  304,450
276,095;  276,925;  276,600;  294,450
276,184;  296,925;  317,600;  317,450
276,273;  275,925;  270,600;  297,450
276,362;  271,925;  260,600;  256,450
276,451;  300,925;  271,600;  286,450
276,540;  285,925;  259,600;  271,450
276,629;  279,925;  274,600;  290,450
276,718;  253,925;  268,600;  258,450
276,807;  269,925;  275,600;  256,450
276,896;  281,925;  269,600;  277,450
276,985;  264,925;  287,600;  255,450
277,074;  285,925;  270,600;  267,450
277,163;  294,925;  289,600;  281,450
277,252;  288,925;  269,600;  278,450
277,341;  286,925;  272,600;  248,450
277,430;  279,925;  239,600;  255,450
277,519;  294,925;  304,600;  293,450
277,608;  262,925;  254,600;  244,450
277,696;  281,925;  272,600;  279,450
277,785;  290,925;  255,600;  276,450
277,874;  299,925;  285,600;  259,450
277,963;  274,925;  273,600;  248,450
278,052;  266,925;  264,600;  286,450
278,141;  298,925;  289,600;  267,450
278,229;  300,925;  279,600;  278,450
278,318;  269,925;  278,600;  269,450
278,407;  282,925;  288,600;  264,450
278,496;  300,925;  319,600;  277,450
278,585;  282,925;  288,600;  297,450
278,673;  271,925;  257,600;  251,450
278,762;  258,925;  238,600;  264,450
278,851;  292,925;  293,600;  272,450
278,940;  295,925;  293,600;  318,450
279,028;  302,925;  271,600;  284,450
279,117;  285,925;  290,600;  283,450
279,206;  282,925;  260,600;  254,450
279,294;  277,925;  280,600;  268,450
279,383;  279,925;  272,600;  289,450
279,472;  308,925;  311,600;  252,450
279,561;  306,925;  264,600;  275,450
279,649;  288,925;  305,600;  283,450
279,738;  250,925;  229,600;  266,450
279,827;  339,925;  285,600;  272,450
279,915;  297,925;  283,600;  248,450
280,004;  254,925;  273,600;  285,450
280,092;  319,925;  286,600;  275,450
280,181;  308,925;  284,600;  249,450
280,270;  297,925;  280,600;  236,450
280,358;  298,925;  299,600;  288,450
280,447;  270,925;  246,600;  240,450
280,535;  277,925;  284,600;  259,450
280,624;  287,925;  291,600;  256,450
280,713;  328,925;  267,600;  266,450
280,801;  272,925;  303,600;  274,450
280,890;  306,925;  262,600;  274,450
280,978;  294,925;  267,600;  239,450
281,067;  279,925;  229,600;  244,450
281,155;  279,925;  267,600;  279,450
281,244;  329,925;  301,600;  299,450
281,332;  292,925;  252,600;  297,450
281,421;  280,925;  273,600;  229,450
281,509;  305,925;  266,600;  268,450
281,598;  261,925;  255,600;  241,450
281,686;  280,925;  300,600;  277,450
281,775;  271,925;  283,600;  280,450
281,863;  259,925;  244,600;  264,450
281,951;  278,925;  254,600;  256,450
282,040;  298,925;  289,600;  320,450
282,128;  311,925;  289,600;  290,450
282,217;  285,925;  255,600;  246,450
282,305;  299,925;  291,600;  280,450
282,393;  280,925;  332,600;  266,450
282,482;  310,925;  314,600;  268,450
282,570;  267,925;  274,600;  279,450
282,658;  276,925;  295,600;  277,450
282,747;  279,925;  257,600;  278,450
282,835;  307,925;  319,600;  305,450
282,923;  248,925;  230,600;  262,450
283,012;  317,925;  268,600;  305,450
283,100;  283,925;  263,600;  230,450
283,188;  257,925;  244,600;  243,450
283,277;  273,925;  279,600;  282,450
283,365;  273,925;  252,600;  253,450
283,453;  250,925;  253,600;  228,450
283,542;  315,925;  293,600;  259,450
283,630;  306,925;  259,600;  271,450
283,718;  248,925;  271,600;  247,450
283,806;  252,925;  225,600;  226,450
283,894;  328,925;  276,600;  274,450
283,983;  283,925;  256,600;  279,450
284,071;  274,925;  307,600;  269,450
284,159;  333,925;  319,600;  305,450
284,247;  275,925;  296,600;  287,450
284,335;  273,925;  267,600;  263,450
284,424;  285,925;  287,600;  269,450
284,512;  278,925;  295,600;  248,450
284,600;  270,925;  261,600;  236,450
284,688;  295,925;  297,600;  325,450
284,776;  250,925;  259,600;  277,450
284,864;  310,925;  327,600;  300,450
284,952;  288,925;  291,600;  276,450
285,041;  338,925;  286,600;  304,450
285,129;  275,925;  304,600;  290,450
285,217;  314,925;  309,600;  280,450
285,305;  320,925;  297,600;  304,450
285,393;  261,925;  255,600;  268,450
285,481;  268,925;  292,600;  274,450
285,569;  265,925;  297,600;  281,450
285,657;  280,925;  272,600;  276,450
285,745;  297,925;  334,600;  282,450
285,833;  272,925;  277,600;  294,450
285,921;  317,925;  301,600;  299,450
286,009;  288,925;  308,600;  308,450
286,097;  315,925;  313,600;  288,450
286,185;  262,925;  294,600;  259,450
286,273;  265,925;  302,600;  257,450
286,361;  298,925;  322,600;  287,450
286,449;  271,925;  305,600;  260,450
286,537;  293,925;  300,600;  248,450
286,625;  296,925;  300,600;  275,450
286,713;  294,925;  262,600;  270,450
286,801;  298,925;  320,600;  307,450
286,889;  321,925;  304,600;  282,450
286,976;  262,925;  271,600;  266,450
287,064;  335,925;  297,600;  309,450
287,152;  280,925;  332,600;  299,450
287,240;  296,925;  297,600;  327,450
287,328;  304,925;  249,600;  245,450
287,416;  288,925;  295,600;  277,450
287,504;  315,925;  302,600;  274,450
287,591;  315,925;  317,600;  307,450
287,679;  279,925;  272,600;  275,450
287,767;  299,925;  270,600;  292,450
287,855;  263,925;  271,600;  284,450
287,943;  299,925;  312,600;  269,450
288,030;  285,925;  246,600;  293,450
288,118;  357,925;  325,600;  295,450
288,206;  279,925;  264,600;  290,450
288,294;  307,925;  273,600;  292,450
288,382;  331,925;  301,600;  288,450
288,469;  314,925;  324,600;  274,450
288,557;  276,925;  276,600;  275,450
288,645;  319,925;  321,600;  281,450
288,732;  285,925;  274,600;  276,450
288,820;  307,925;  334,600;  270,450
288,908;  302,925;  295,600;  295,450
288,995;  295,925;  295,600;  277,450
289,083;  271,925;  278,600;  278,450
289,171;  300,925;  328,600;  310,450
289,258;  349,925;  402,600;  311,450
289,346;  438,925;  433,600;  329,450
289,434;  321,925;  345,600;  318,450
289,521;  261,925;  298,600;  281,450
289,609;  301,925;  317,600;  309,450
289,697;  306,925;  310,600;  321,450
289,784;  298,925;  300,600;  284,450
289,872;  318,925;  314,600;  313,450
289,959;  280,925;  274,600;  262,450
290,047;  296,925;  268,600;  272,450
290,134;  286,925;  286,600;  264,450
290,222;  300,925;  317,600;  294,450
290,310;  320,925;  310,600;  280,450
290,397;  343,925;  302,600;  319,450
290,485;  301,925;  291,600;  284,450
290,572;  298,925;  286,600;  318,450
290,660;  277,925;  300,600;  293,450
290,747;  293,925;  292,600;  290,450
290,835;  295,925;  296,600;  321,450
290,922;  296,925;  307,600;  294,450
291,009;  294,925;  310,600;  283,450
291,097;  292,925;  305,600;  282,450
291,184;  340,925;  319,600;  313,450
291,272;  291,925;  297,600;  264,450
291,359;  267,925;  283,600;  283,450
291,447;  302,925;  294,600;  309,450
291,534;  309,925;  310,600;  315,450
291,621;  293,925;  261,600;  308,450
291,709;  241,925;  284,600;  270,450
291,796;  313,925;  313,600;  323,450
291,884;  332,925;  310,600;  308,450
291,971;  316,925;  306,600;  287,450
292,058;  278,925;  250,600;  294,450
292,146;  298,925;  293,600;  279,450
292,233;  254,925;  284,600;  243,450
292,320;  287,925;  294,600;  284,450
292,408;  331,925;  316,600;  297,450
292,495;  284,925;  302,600;  281,450
292,582;  264,925;  276,600;  273,450
292,669;  266,925;  273,600;  285,450
292,757;  291,925;  292,600;  288,450
292,844;  335,925;  305,600;  312,450
292,931;  241,925;  272,600;  266,450
293,018;  273,925;  267,600;  264,450
293,106;  282,925;  290,600;  324,450
293,193;  239,925;  265,600;  280,450
293,280;  305,925;  304,600;  310,450
293,367;  304,925;  279,600;  295,450
293,455;  288,925;  253,600;  248,450
293,542;  280,925;  264,600;  268,450
293,629;  277,925;  264,600;  272,450
293,716;  318,925;  341,600;  307,450
293,803;  291,925;  273,600;  279,450
293,890;  319,925;  284,600;  298,450
293,978;  273,925;  277,600;  266,450
294,065;  292,925;  293,600;  268,450
294,152;  320,925;  276,600;  315,450
294,239;  259,925;  294,600;  269,450
294,326;  291,925;  307,600;  277,450
294,413;  268,925;  280,600;  253,450
294,500;  273,925;  304,600;  286,450
294,587;  287,925;  291,600;  255,450
294,674;  281,925;  280,600;  314,450
294,761;  281,925;  283,600;  266,450
294,848;  285,925;  275,600;  288,450
294,935;  292,925;  281,600;  279,450
295,022;  263,925;  269,600;  243,450
295,109;  224,925;  259,600;  253,450
295,196;  290,925;  297,600;  309,450
295,283;  304,925;  295,600;  256,450
295,370;  301,925;  318,600;  307,450
295,457;  287,925;  266,600;  285,450
295,544;  311,925;  277,600;  264,450
295,631;  272,925;  282,600;  272,450
295,718;  289,925;  279,600;  248,450
295,805;  320,925;  298,600;  281,450
295,892;  297,925;  314,600;  274,450
295,979;  317,925;  294,600;  284,450
296,066;  289,925;  306,600;  278,450
296,153;  312,925;  313,600;  324,450
296,240;  277,925;  312,600;  282,450
296,327;  310,925;  286,600;  257,450
296,413;  336,925;  316,600;  272,450
296,500;  346,925;  330,600;  261,450
296,587;  543,925;  534,600;  268,450
296,674; 1718,925; 1749,600;  263,450
296,761;  724,925;  786,600;  252,450
296,848;  307,925;  299,600;  274,450
296,934;  316,925;  296,600;  274,450
297,021;  263,925;  286,600;  266,450
297,108;  272,925;  310,600;  269,450
297,195;  321,925;  276,600;  268,450
297,282;  279,925;  295,600;  273,450
297,368;  259,925;  297,600;  347,450
297,455;  289,925;  284,600;  259,450
297,542;  299,925;  330,600;  316,450
297,629;  304,925;  315,600;  290,450
297,715;  305,925;  309,600;  306,450
297,802;  307,925;  286,600;  273,450
297,889;  290,925;  307,600;  319,450
297,975;  331,925;  326,600;  320,450
298,062;  351,925;  325,600;  301,450
298,149;  270,925;  300,600;  269,450
298,235;  293,925;  286,600;  308,450
298,322;  294,925;  287,600;  291,450
298,409;  305,925;  340,600;  304,450
298,495;  303,925;  282,600;  250,450
298,582;  300,925;  303,600;  304,450
298,669;  300,925;  290,600;  290,450
298,755;  298,925;  295,600;  281,450
298,842;  308,925;  315,600;  314,450
298,928;  293,925;  298,600;  281,450
299,015;  265,925;  287,600;  296,450
299,102;  295,925;  306,600;  309,450
299,188;  298,925;  307,600;  292,450
299,275;  321,925;  313,600;  289,450
299,361;  282,925;  274,600;  256,450
299,448;  306,925;  283,600;  278,450
299,534;  317,925;  328,600;  282,450
299,621;  306,925;  323,600;  302,450
299,707;  282,925;  298,600;  298,450
299,794;  324,925;  318,600;  322,450
299,880;  320,925;  301,600;  313,450
299,967;  294,925;  285,600;  251,450
300,053;  290,925;  301,600;  301,450
300,140;  316,925;  314,600;  315,450
300,226;  311,925;  320,600;  297,450
300,312;  325,925;  310,600;  306,450
300,399;  332,925;  290,600;  309,450
300,485;  292,925;  310,600;  268,450
300,572;  279,925;  272,600;  257,450
300,658;  299,925;  299,600;  272,450
300,744;  286,925;  310,600;  301,450
300,831;  343,925;  302,600;  292,450
300,917;  289,925;  298,600;  310,450
301,004;  337,925;  299,600;  288,450
301,090;  269,925;  279,600;  254,450
301,176;  282,925;  284,600;  254,450
301,263;  299,925;  322,600;  282,450
301,349;  290,925;  294,600;  273,450
301,435;  266,925;  267,600;  268,450
301,521;  306,925;  323,600;  301,450
301,608;  310,925;  311,600;  319,450
301,694;  307,925;  304,600;  283,450
301,780;  308,925;  296,600;  288,450
301,867;  286,925;  281,600;  274,450
301,953;  308,925;  289,600;  304,450
302,039;  382,925;  409,600;  273,450
302,125;  499,925;  539,600;  281,450
302,211;  397,925;  349,600;  300,450
302,298;  358,925;  374,600;  261,450
302,384;  309,925;  296,600;  238,450
302,470;  292,925;  280,600;  280,450
302,556;  249,925;  331,600;  294,450
302,642;  288,925;  286,600;  226,450
302,729;  302,925;  300,600;  270,450
302,815;  320,925;  299,600;  269,450
302,901;  293,925;  267,600;  294,450
302,987;  296,925;  299,600;  293,450
303,073;  305,925;  284,600;  283,450
303,159;  280,925;  295,600;  305,450
303,245;  273,925;  279,600;  256,450
303,331;  298,925;  281,600;  277,450
303,417;  287,925;  283,600;  328,450
303,503;  274,925;  331,600;  293,450
303,590;  267,925;  289,600;  272,450
303,676;  268,925;  289,600;  302,450
303,762;  290,925;  288,600;  270,450
303,848;  305,925;  295,600;  316,450
303,934;  284,925;  323,600;  286,450
304,020;  327,925;  304,600;  288,450
304,106;  303,925;  318,600;  287,450
304,192;  290,925;  265,600;  275,450
304,278;  300,925;  297,600;  304,450
304,364;  303,925;  327,600;  303,450
304,450;  329,925;  283,600;  288,450
304,535;  287,925;  304,600;  295,450
304,621;  324,925;  302,600;  309,450
304,707;  291,925;  294,600;  296,450
304,793;  303,925;  323,600;  295,450
304,879;  296,925;  305,600;  292,450
304,965;  323,925;  297,600;  273,450
305,051;  307,925;  310,600;  260,450
305,137;  307,925;  266,600;  314,450
305,223;  273,925;  299,600;  301,450
305,309;  325,925;  306,600;  306,450
305,394;  305,925;  266,600;  282,450
305,480;  307,925;  298,600;  266,450
305,566;  309,925;  280,600;  297,450
305,652;  286,925;  297,600;  308,450
305,738;  364,925;  332,600;  315,450
305,824;  346,925;  280,600;  303,450
305,909;  299,925;  338,600;  301,450
305,995;  288,925;  267,600;  268,450
306,081;  364,925;  368,600;  334,450
306,167;  313,925;  287,600;  311,450
306,252;  298,925;  319,600;  311,450
306,338;  325,925;  332,600;  332,450
306,424;  301,925;  315,600;  260,450
306,510;  285,925;  355,600;  305,450
306,595;  296,925;  303,600;  335,450
306,681;  334,925;  321,600;  287,450
306,767;  314,925;  313,600;  286,450
306,852;  326,925;  337,600;  314,450
306,938;  342,925;  291,600;  336,450
307,024;  285,925;  281,600;  321,450
307,109;  364,925;  340,600;  327,450
307,195;  320,925;  318,600;  337,450
307,281;  276,925;  322,600;  315,450
307,366;  300,925;  319,600;  284,450
307,452;  330,925;  292,600;  312,450
307,537;  289,925;  289,600;  281,450
307,623;  277,925;  272,600;  282,450
307,709;  301,925;  302,600;  325,450
307,794;  275,925;  293,600;  258,450
307,880;  314,925;  321,600;  320,450
307,965;  312,925;  278,600;  274,450
308,051;  316,925;  263,600;  305,450
308,136;  296,925;  314,600;  260,450
308,222;  283,925;  306,600;  301,450
308,307;  286,925;  286,600;  312,450
308,393;  297,925;  294,600;  285,450
308,478;  303,925;  321,600;  308,450
308,564;  309,925;  280,600;  276,450
308,649;  297,925;  308,600;  304,450
308,735;  296,925;  320,600;  278,450
308,820;  330,925;  328,600;  304,450
308,906;  297,925;  298,600;  272,450
308,991;  308,925;  339,600;  314,450
309,076;  300,925;  335,600;  290,450
309,162;  267,925;  265,600;  245,450
309,247;  282,925;  297,600;  288,450
309,333;  316,925;  284,600;  286,450
309,418;  295,925;  281,600;  297,450
309,503;  299,925;  301,600;  289,450
309,589;  281,925;  308,600;  306,450
309,674;  284,925;  274,600;  268,450
309,759;  261,925;  291,600;  289,450
309,845;  279,925;  290,600;  312,450
309,930;  309,925;  292,600;  288,450
310,015;  272,925;  257,600;  251,450
310,101;  309,925;  282,600;  296,450
310,186;  284,925;  267,600;  298,450
310,271;  339,925;  298,600;  286,450
310,357;  266,925;  265,600;  286,450
310,442;  325,925;  288,600;  263,450
310,527;  286,925;  288,600;  306,450
310,612;  257,925;  291,600;  253,450
310,698;  309,925;  282,600;  275,450
310,783;  298,925;  288,600;  279,450
310,868;  286,925;  313,600;  263,450
310,953;  276,925;  269,600;  293,450
311,038;  288,925;  289,600;  286,450
311,124;  252,925;  296,600;  277,450
311,209;  290,925;  293,600;  291,450
311,294;  282,925;  306,600;  303,450
311,379;  239,925;  254,600;  258,450
311,464;  279,925;  302,600;  291,450
311,549;  277,925;  277,600;  294,450
311,634;  292,925;  284,600;  275,450
311,719;  344,925;  308,600;  309,450
311,805;  287,925;  308,600;  275,450
311,890;  267,925;  308,600;  261,450
311,975;  268,925;  262,600;  283,450
312,060;  315,925;  321,600;  289,450
312,145;  281,925;  277,600;  262,450
312,230;  285,925;  313,600;  285,450
312,315;  335,925;  325,600;  262,450
312,400;  395,925;  404,600;  303,450
312,485; 1669,925; 1668,600;  292,450
312,570; 1250,925; 1232,600;  239,450
312,655;  338,925;  342,600;  282,450
312,740;  297,925;  312,600;  289,450
312,825;  319,925;  329,600;  301,450
312,910;  356,925;  343,600;  278,450
312,995;  476,925;  443,600;  325,450
313,080; 2148,925; 2082,600;  265,450
313,165; 2180,925; 2149,600;  310,450
313,250;  361,925;  308,600;  276,450
313,335;  343,925;  321,600;  307,450
313,419;  265,925;  269,600;  242,450
313,504;  337,925;  304,600;  286,450
313,589;  301,925;  272,600;  277,450
313,674;  296,925;  303,600;  290,450
313,759;  245,925;  274,600;  273,450
313,844;  282,925;  276,600;  289,450
313,929;  298,925;  295,600;  285,450
314,014;  316,925;  307,600;  320,450
314,098;  295,925;  321,600;  305,450
314,183;  262,925;  258,600;  260,450
314,268;  304,925;  295,600;  290,450
314,353;  302,925;  287,600;  290,450
314,438;  311,925;  287,600;  294,450
314,522;  303,925;  272,600;  306,450
314,607;  282,925;  282,600;  302,450
314,692;  315,925;  291,600;  301,450
314,777;  308,925;  291,600;  279,450
314,861;  247,925;  293,600;  263,450
314,946;  321,925;  321,600;  303,450
315,031;  282,925;  284,600;  267,450
315,115;  295,925;  309,600;  318,450
315,200;  333,925;  301,600;  285,450
315,285;  295,925;  278,600;  275,450
315,369;  286,925;  282,600;  273,450
315,454;  304,925;  291,600;  305,450
315,539;  299,925;  280,600;  283,450
315,623;  314,925;  308,600;  292,450
315,708;  361,925;  326,600;  315,450
315,793;  292,925;  318,600;  308,450
315,877;  291,925;  311,600;  282,450
315,962;  287,925;  263,600;  283,450
316,046;  322,925;  327,600;  298,450
316,131;  338,925;  334,600;  313,450
316,216;  319,925;  308,600;  288,450
316,300;  299,925;  307,600;  281,450
316,385;  325,925;  301,600;  319,450
316,469;  330,925;  335,600;  331,450
316,554;  282,925;  290,600;  288,450
316,638;  301,925;  297,600;  286,450
316,723;  307,925;  285,600;  262,450
316,807;  312,925;  268,600;  273,450
316,892;  272,925;  293,600;  275,450
316,976;  290,925;  298,600;  318,450
317,061;  298,925;  282,600;  309,450
317,145;  331,925;  316,600;  315,450
317,230;  307,925;  309,600;  304,450
317,314;  275,925;  264,600;  259,450
317,398;  322,925;  280,600;  323,450
317,483;  290,925;  312,600;  266,450
317,567;  323,925;  299,600;  317,450
317,652;  277,925;  280,600;  244,450
317,736;  295,925;  277,600;  329,450
317,820;  312,925;  343,600;  287,450
317,905;  300,925;  311,600;  289,450
317,989;  311,925;  303,600;  312,450
318,073;  270,925;  281,600;  280,450
318,158;  271,925;  262,600;  284,450
318,242;  293,925;  297,600;  269,450
318,326;  287,925;  265,600;  260,450
318,411;  295,925;  263,600;  290,450
318,495;  290,925;  274,600;  286,450
318,579;  267,925;  264,600;  266,450
318,664;  280,925;  284,600;  242,450
318,748;  295,925;  290,600;  266,450
318,832;  287,925;  261,600;  263,450
318,916;  268,925;  272,600;  263,450
319,001;  289,925;  287,600;  299,450
319,085;  271,925;  265,600;  265,450
319,169;  283,925;  304,600;  285,450
319,253;  263,925;  270,600;  271,450
319,337;  303,925;  311,600;  265,450
319,422;  322,925;  329,600;  325,450
319,506;  265,925;  282,600;  264,450
319,590;  295,925;  303,600;  320,450
319,674;  301,925;  326,600;  301,450
319,758;  287,925;  277,600;  278,450
319,842;  318,925;  280,600;  290,450
319,926;  308,925;  268,600;  280,450
320,010;  265,925;  267,600;  226,450
320,095;  280,925;  284,600;  274,450
320,179;  279,925;  270,600;  263,450
320,263;  262,925;  259,600;  265,450
320,347;  277,925;  217,600;  260,450
320,431;  250,925;  267,600;  245,450
320,515;  261,925;  297,600;  267,450
320,599;  259,925;  274,600;  263,450
320,683;  302,925;  295,600;  306,450
320,767;  250,925;  246,600;  230,450
320,851;  232,925;  247,600;  282,450
320,935;  314,925;  294,600;  317,450
321,019;  265,925;  258,600;  297,450
321,103;  264,925;  319,600;  295,450
321,187;  262,925;  272,600;  303,450
321,271;  299,925;  299,600;  251,450
321,355;  276,925;  290,600;  264,450
321,439;  298,925;  282,600;  306,450
321,523;  273,925;  285,600;  287,450
321,606;  292,925;  289,600;  301,450
321,690;  275,925;  285,600;  261,450
321,774;  307,925;  284,600;  286,450
321,858;  288,925;  300,600;  283,450
321,942;  304,925;  298,600;  291,450
322,026;  305,925;  296,600;  280,450
322,110;  313,925;  286,600;  264,450
322,194;  307,925;  279,600;  293,450
322,277;  267,925;  287,600;  257,450
322,361;  249,925;  260,600;  265,450
322,445;  288,925;  285,600;  252,450
322,529;  274,925;  298,600;  264,450
322,613;  281,925;  273,600;  262,450
322,696;  189,925;  287,600;  266,450
322,780;  282,925;  303,600;  256,450
322,864;  277,925;  310,600;  288,450
322,948;  246,925;  262,600;  270,450
323,031;  266,925;  268,600;  269,450
323,115;  292,925;  299,600;  257,450
323,199;  274,925;  291,600;  268,450
323,282;  298,925;  284,600;  302,450
323,366;  268,925;  280,600;  307,450
323,450;  250,925;  241,600;  266,450
323,533;  303,925;  309,600;  308,450
323,617;  260,925;  243,600;  238,450
323,701;  250,925;  239,600;  257,450
323,784;  305,925;  305,600;  289,450
323,868;  280,925;  302,600;  285,450
323,952;  291,925;  276,600;  272,450
324,035;  305,925;  295,600;  297,450
324,119;  288,925;  285,600;  262,450
324,202;  270,925;  280,600;  298,450
324,286;  245,925;  236,600;  286,450
324,370;  275,925;  291,600;  274,450
324,453;  290,925;  287,600;  296,450
324,537;  303,925;  280,600;  281,450
324,620;  266,925;  295,600;  303,450
324,704;  258,925;  281,600;  261,450
324,787;  281,925;  295,600;  267,450
324,871;  318,925;  293,600;  314,450
324,954;  327,925;  299,600;  318,450
325,038;  330,925;  299,600;  301,450
325,121;  314,925;  302,600;  316,450
325,205;  282,925;  273,600;  277,450
325,288;  270,925;  280,600;  269,450
325,371;  295,925;  275,600;  285,450
325,455;  310,925;  289,600;  302,450
325,538;  310,925;  292,600;  308,450
325,622;  328,925;  302,600;  306,450
325,705;  294,925;  303,600;  300,450
325,788;  371,925;  297,600;  298,450
325,872;  290,925;  264,600;  279,450
325,955;  290,925;  305,600;  300,450
326,039;  299,925;  290,600;  313,450
326,122;  318,925;  277,600;  288,450
326,205;  281,925;  320,600;  299,450
326,289;  322,925;  313,600;  313,450
326,372;  292,925;  310,600;  288,450
326,455;  335,925;  322,600;  318,450
326,538;  350,925;  312,600;  306,450
326,622;  344,925;  285,600;  313,450
326,705;  286,925;  272,600;  290,450
326,788;  311,925;  288,600;  324,450
326,871;  321,925;  286,600;  281,450
326,955;  290,925;  293,600;  333,450
327,038;  315,925;  304,600;  284,450
327,121;  266,925;  313,600;  303,450
327,204;  303,925;  315,600;  298,450
327,288;  302,925;  326,600;  328,450
327,371;  294,925;  286,600;  294,450
327,454;  345,925;  303,600;  316,450
327,537;  278,925;  272,600;  285,450
327,620;  319,925;  327,600;  309,450
327,703;  292,925;  308,600;  314,450
327,786;  286,925;  320,600;  319,450
327,870;  318,925;  321,600;  308,450
327,953;  294,925;  307,600;  296,450
328,036;  293,925;  291,600;  264,450
328,119;  315,925;  345,600;  299,450
328,202;  304,925;  305,600;  287,450
328,285;  328,925;  336,600;  306,450
328,368;  290,925;  335,600;  328,450
328,451;  290,925;  325,600;  334,450
328,534;  307,925;  292,600;  283,450
328,617;  295,925;  290,600;  281,450
328,700;  331,925;  325,600;  327,450
328,783;  310,925;  319,600;  292,450
328,866;  318,925;  294,600;  287,450
328,949;  309,925;  341,600;  325,450
329,032;  287,925;  292,600;  308,450
329,115;  291,925;  288,600;  279,450
329,198;  282,925;  265,600;  282,450
329,281;  300,925;  310,600;  277,450
329,364;  330,925;  300,600;  330,450
329,447;  299,925;  303,600;  300,450
329,530;  299,925;  321,600;  317,450
329,613;  298,925;  302,600;  289,450
329,696;  319,925;  308,600;  298,450
329,778;  316,925;  313,600;  293,450
329,861;  265,925;  309,600;  288,450
329,944;  327,925;  326,600;  272,450
330,027;  320,925;  312,600;  296,450
330,110;  303,925;  305,600;  313,450
330,193;  287,925;  284,600;  300,450
330,275;  328,925;  290,600;  298,450
330,358;  293,925;  278,600;  298,450
330,441;  311,925;  307,600;  326,450
330,524;  303,925;  322,600;  298,450
330,607;  287,925;  281,600;  304,450
330,689;  311,925;  278,600;  321,450
330,772;  296,925;  290,600;  305,450
330,855;  319,925;  329,600;  287,450
330,938;  335,925;  332,600;  319,450
331,020;  325,925;  298,600;  292,450
331,103;  297,925;  280,600;  310,450
331,186;  327,925;  298,600;  286,450
331,268;  327,925;  280,600;  269,450
331,351;  313,925;  285,600;  311,450
331,434;  310,925;  296,600;  316,450
331,516;  274,925;  313,600;  329,450
331,599;  273,925;  266,600;  255,450
331,682;  325,925;  301,600;  302,450
331,764;  314,925;  308,600;  261,450
331,847;  286,925;  311,600;  310,450
331,929;  284,925;  286,600;  278,450
332,012;  306,925;  296,600;  295,450
332,095;  330,925;  348,600;  317,450
332,177;  344,925;  353,600;  324,450
332,260;  314,925;  349,600;  345,450
332,342;  297,925;  310,600;  291,450
332,425;  316,925;  301,600;  293,450
332,507;  282,925;  239,600;  316,450
332,590;  293,925;  274,600;  280,450
332,672;  306,925;  310,600;  264,450
332,755;  286,925;  320,600;  233,450
332,837;  291,925;  286,600;  274,450
332,920;  280,925;  315,600;  298,450
333,002;  298,925;  308,600;  306,450
333,085;  308,925;  308,600;  298,450
333,167;  290,925;  275,600;  266,450
333,249;  303,925;  276,600;  277,450
333,332;  283,925;  275,600;  279,450
333,414;  302,925;  317,600;  295,450
333,497;  273,925;  315,600;  305,450
333,579;  298,925;  303,600;  307,450
333,661;  277,925;  319,600;  286,450
333,744;  275,925;  265,600;  243,450
333,826;  286,925;  302,600;  293,450
333,908;  294,925;  329,600;  332,450
333,991;  278,925;  253,600;  285,450
334,073;  430,925;  503,600;  321,450
334,155;  357,925;  360,600;  289,450
334,238;  318,925;  314,600;  286,450
334,320;  298,925;  296,600;  270,450
334,402;  294,925;  298,600;  292,450
334,485;  296,925;  305,600;  282,450
334,567;  302,925;  301,600;  262,450
334,649;  276,925;  266,600;  273,450
334,731;  292,925;  287,600;  285,450
334,813;  298,925;  346,600;  352,450
334,896;  277,925;  296,600;  287,450
334,978;  304,925;  302,600;  283,450
335,060;  303,925;  306,600;  296,450
335,142;  297,925;  265,600;  306,450
335,224;  290,925;  308,600;  310,450
335,307;  284,925;  277,600;  275,450
335,389;  311,925;  302,600;  315,450
335,471;  281,925;  300,600;  282,450
335,553;  312,925;  308,600;  317,450
335,635;  294,925;  303,600;  277,450
335,717;  285,925;  280,600;  305,450
335,799;  295,925;  314,600;  325,450
335,881;  270,925;  271,600;  251,450
335,963;  305,925;  283,600;  278,450
336,045;  262,925;  281,600;  276,450
336,128;  258,925;  281,600;  268,450
336,210;  305,925;  284,600;  250,450
336,292;  288,925;  301,600;  283,450
336,374;  310,925;  307,600;  287,450
336,456;  276,925;  290,600;  258,450
336,538;  282,925;  288,600;  304,450
336,620;  306,925;  325,600;  305,450
336,702;  267,925;  308,600;  309,450
336,783;  282,925;  299,600;  289,450
336,865;  299,925;  302,600;  303,450
336,947;  302,925;  299,600;  302,450
337,029;  276,925;  252,600;  262,450
337,111;  309,925;  309,600;  328,450
337,193;  276,925;  257,600;  250,450
337,275;  329,925;  302,600;  291,450
337,357;  322,925;  299,600;  305,450
337,439;  319,925;  299,600;  277,450
337,521;  254,925;  274,600;  268,450
337,602;  277,925;  280,600;  295,450
337,684;  310,925;  302,600;  341,450
337,766;  282,925;  301,600;  288,450
337,848;  271,925;  309,600;  318,450
337,930;  306,925;  300,600;  300,450
338,012;  306,925;  257,600;  295,450
338,093;  336,925;  302,600;  312,450
338,175;  294,925;  308,600;  308,450
338,257;  287,925;  296,600;  243,450
338,339;  284,925;  303,600;  248,450
338,420;  286,925;  304,600;  329,450
338,502;  297,925;  292,600;  292,450
338,584;  274,925;  261,600;  270,450
338,666;  287,925;  293,600;  301,450
338,747;  303,925;  337,600;  324,450
338,829;  332,925;  301,600;  300,450
338,911;  332,925;  281,600;  284,450
338,992;  284,925;  292,600;  299,450
339,074;  315,925;  300,600;  274,450
339,156;  313,925;  308,600;  302,450
339,237;  333,925;  344,600;  320,450
339,319;  289,925;  298,600;  284,450
339,400;  265,925;  301,600;  313,450
339,482;  283,925;  291,600;  259,450
339,564;  290,925;  337,600;  315,450
339,645;  276,925;  283,600;  306,450
339,727;  270,925;  284,600;  278,450
339,808;  290,925;  306,600;  320,450
339,890;  309,925;  285,600;  277,450
339,971;  298,925;  318,600;  299,450
340,053;  299,925;  327,600;  339,450
340,134;  282,925;  287,600;  283,450
340,216;  294,925;  294,600;  302,450
340,297;  296,925;  330,600;  312,450
340,379;  292,925;  344,600;  301,450
340,460;  307,925;  275,600;  299,450
340,542;  288,925;  307,600;  263,450
340,623;  320,925;  306,600;  325,450
340,705;  285,925;  306,600;  262,450
340,786;  289,925;  299,600;  288,450
340,868;  293,925;  299,600;  313,450
340,949;  255,925;  279,600;  269,450
341,030;  311,925;  330,600;  312,450
341,112;  292,925;  256,600;  269,450
341,193;  282,925;  287,600;  248,450
341,274;  332,925;  325,600;  312,450
341,356;  337,925;  329,600;  300,450
341,437;  303,925;  292,600;  284,450
341,518;  311,925;  313,600;  322,450
341,600;  306,925;  321,600;  324,450
341,681;  339,925;  316,600;  308,450
341,762;  310,925;  316,600;  314,450
341,844;  247,925;  271,600;  280,450
341,925;  301,925;  304,600;  329,450
342,006;  310,925;  314,600;  322,450
342,087;  293,925;  291,600;  308,450
342,169;  312,925;  301,600;  297,450
342,250;  267,925;  303,600;  250,450
342,331;  298,925;  291,600;  268,450
342,412;  322,925;  304,600;  283,450
342,493;  284,925;  279,600;  266,450
342,575;  323,925;  298,600;  308,450
342,656;  319,925;  343,600;  319,450
342,737;  336,925;  331,600;  316,450
342,818;  292,925;  319,600;  291,450
342,899;  291,925;  309,600;  295,450
342,980;  327,925;  306,600;  302,450
343,061;  285,925;  297,600;  279,450
343,143;  339,925;  299,600;  310,450
343,224;  283,925;  297,600;  287,450
343,305;  277,925;  294,600;  273,450
343,386;  261,925;  290,600;  295,450
343,467;  298,925;  306,600;  295,450
343,548;  295,925;  307,600;  271,450
343,629;  319,925;  348,600;  311,450
343,710;  320,925;  354,600;  330,450
343,791;  306,925;  296,600;  295,450
343,872;  268,925;  314,600;  271,450
343,953;  299,925;  323,600;  303,450
344,034;  287,925;  307,600;  307,450
344,115;  269,925;  298,600;  295,450
344,196;  308,925;  295,600;  273,450
344,277;  277,925;  282,600;  299,450
344,358;  303,925;  279,600;  295,450
344,439;  271,925;  281,600;  287,450
344,520;  266,925;  310,600;  269,450
344,601;  289,925;  319,600;  332,450
344,681;  282,925;  312,600;  315,450
344,762;  257,925;  275,600;  257,450
344,843;  255,925;  300,600;  255,450
344,924;  310,925;  252,600;  290,450
345,005;  278,925;  269,600;  286,450
345,086;  318,925;  301,600;  289,450
345,167;  276,925;  299,600;  282,450
345,247;  323,925;  305,600;  327,450
345,328;  328,925;  287,600;  317,450
345,409;  288,925;  280,600;  307,450
345,490;  300,925;  314,600;  310,450
345,571;  311,925;  293,600;  295,450
345,651;  277,925;  260,600;  335,450
345,732;  301,925;  303,600;  286,450
345,813;  327,925;  285,600;  291,450
345,894;  259,925;  254,600;  279,450
345,974;  309,925;  346,600;  305,450
346,055;  276,925;  275,600;  291,450
346,136;  300,925;  311,600;  287,450
346,216;  321,925;  312,600;  345,450
346,297;  309,925;  294,600;  289,450
346,378;  308,925;  270,600;  300,450
346,458;  287,925;  299,600;  271,450
346,539;  285,925;  295,600;  315,450
346,620;  248,925;  301,600;  312,450
346,700;  266,925;  302,600;  258,450
346,781;  269,925;  252,600;  260,450
346,861;  287,925;  283,600;  301,450
346,942;  280,925;  273,600;  319,450
347,023;  327,925;  302,600;  306,450
347,103;  304,925;  296,600;  287,450
347,184;  270,925;  321,600;  294,450
347,264;  273,925;  289,600;  310,450
347,345;  277,925;  280,600;  281,450
347,425;  271,925;  270,600;  295,450
347,506;  271,925;  283,600;  283,450
347,586;  278,925;  258,600;  283,450
347,667;  296,925;  316,600;  299,450
347,747;  310,925;  307,600;  304,450
347,828;  257,925;  308,600;  271,450
347,908;  317,925;  307,600;  307,450
347,988;  266,925;  296,600;  251,450
348,069;  295,925;  295,600;  305,450
348,149;  262,925;  303,600;  276,450
348,230;  280,925;  297,600;  301,450
348,310;  310,925;  291,600;  301,450
348,390;  282,925;  285,600;  267,450
348,471;  291,925;  299,600;  270,450
348,551;  298,925;  289,600;  264,450
348,632;  289,925;  288,600;  278,450
348,712;  280,925;  281,600;  278,450
348,792;  320,925;  352,600;  333,450
348,873;  289,925;  293,600;  249,450
348,953;  292,925;  278,600;  330,450
349,033;  292,925;  285,600;  311,450
349,113;  295,925;  278,600;  277,450
349,194;  287,925;  289,600;  310,450
349,274;  280,925;  300,600;  310,450
349,354;  305,925;  288,600;  285,450
349,434;  317,925;  300,600;  299,450
349,515;  323,925;  310,600;  320,450
349,595;  313,925;  308,600;  287,450
349,675;  327,925;  289,600;  299,450
349,755;  282,925;  325,600;  280,450
349,835;  352,925;  305,600;  309,450
349,916;  305,925;  298,600;  284,450
349,996;  252,925;  287,600;  253,450
350,076;  311,925;  286,600;  315,450
350,156;  258,925;  272,600;  280,450
350,236;  313,925;  292,600;  316,450
350,316;  274,925;  296,600;  282,450
350,396;  289,925;  283,600;  306,450
350,476;  273,925;  308,600;  275,450
350,556;  280,925;  275,600;  290,450
350,637;  330,925;  331,600;  312,450
350,717;  274,925;  269,600;  287,450
350,797;  326,925;  307,600;  305,450
350,877;  320,925;  305,600;  323,450
350,957;  257,925;  285,600;  291,450
351,037;  286,925;  303,600;  298,450
351,117;  328,925;  304,600;  275,450
351,197;  284,925;  331,600;  302,450
351,277;  293,925;  328,600;  277,450
351,357;  318,925;  322,600;  293,450
351,437;  296,925;  299,600;  283,450
351,516;  303,925;  337,600;  283,450
351,596;  283,925;  291,600;  329,450
351,676;  272,925;  269,600;  284,450
351,756;  328,925;  308,600;  326,450
351,836;  341,925;  285,600;  329,450
351,916;  261,925;  324,600;  287,450
351,996;  311,925;  313,600;  318,450
352,076;  307,925;  288,600;  302,450
352,156;  321,925;  317,600;  297,450
352,235;  306,925;  310,600;  304,450
352,315;  312,925;  313,600;  339,450
352,395;  285,925;  306,600;  277,450
352,475;  309,925;  339,600;  287,450
352,555;  324,925;  362,600;  344,450
352,634;  324,925;  304,600;  344,450
352,714;  277,925;  310,600;  263,450
352,794;  374,925;  334,600;  364,450
352,874;  314,925;  335,600;  339,450
352,953;  311,925;  336,600;  318,450
353,033;  313,925;  317,600;  344,450
353,113;  312,925;  360,600;  341,450
353,193;  290,925;  314,600;  334,450
353,272;  332,925;  295,600;  329,450
353,352;  315,925;  303,600;  275,450
353,432;  318,925;  324,600;  344,450
353,511;  313,925;  323,600;  302,450
353,591;  340,925;  352,600;  347,450
353,671;  351,925;  335,600;  320,450
353,750;  349,925;  311,600;  311,450
353,830;  304,925;  319,600;  296,450
353,909;  338,925;  335,600;  341,450
353,989;  331,925;  309,600;  297,450
354,069;  313,925;  315,600;  318,450
354,148;  334,925;  341,600;  323,450
354,228;  321,925;  315,600;  300,450
354,307;  330,925;  313,600;  312,450
354,387;  339,925;  316,600;  326,450
354,466;  298,925;  319,600;  299,450
354,546;  320,925;  314,600;  347,450
354,625;  316,925;  341,600;  324,450
354,705;  312,925;  272,600;  330,450
354,784;  305,925;  301,600;  303,450
354,864;  320,925;  309,600;  305,450
354,943;  323,925;  340,600;  339,450
355,023;  323,925;  288,600;  314,450
355,102;  353,925;  337,600;  333,450
355,181;  342,925;  328,600;  329,450
355,261;  335,925;  314,600;  344,450
355,340;  333,925;  301,600;  307,450
355,420;  343,925;  325,600;  327,450
355,499;  310,925;  294,600;  326,450
355,578;  318,925;  321,600;  324,450
355,658;  327,925;  310,600;  346,450
355,737;  336,925;  312,600;  309,450
355,816;  339,925;  330,600;  333,450
355,896;  318,925;  300,600;  301,450
355,975;  304,925;  308,600;  294,450
356,054;  309,925;  316,600;  285,450
356,133;  307,925;  287,600;  314,450
356,213;  293,925;  318,600;  292,450
356,292;  312,925;  297,600;  276,450
356,371;  349,925;  331,600;  297,450
356,451;  340,925;  345,600;  294,450
356,530;  359,925;  357,600;  319,450
356,609;  298,925;  306,600;  286,450
356,688;  325,925;  314,600;  298,450
356,767;  288,925;  299,600;  290,450
356,846;  315,925;  346,600;  295,450
356,926;  375,925;  342,600;  361,450
357,005;  326,925;  332,600;  321,450
357,084;  298,925;  318,600;  321,450
357,163;  283,925;  335,600;  341,450
357,242;  307,925;  286,600;  337,450
357,321;  289,925;  322,600;  296,450
357,400;  338,925;  305,600;  310,450
357,479;  300,925;  336,600;  292,450
357,559;  307,925;  325,600;  314,450
357,638;  275,925;  312,600;  292,450
357,717;  290,925;  322,600;  304,450
357,796;  320,925;  348,600;  323,450
357,875;  307,925;  333,600;  316,450
357,954;  307,925;  312,600;  285,450
358,033;  303,925;  311,600;  278,450
358,112;  304,925;  302,600;  300,450
358,191;  323,925;  313,600;  289,450
358,270;  317,925;  266,600;  300,450
358,349;  317,925;  291,600;  324,450
358,428;  343,925;  321,600;  335,450
358,507;  353,925;  348,600;  306,450
358,585;  295,925;  318,600;  326,450
358,664;  340,925;  318,600;  340,450
358,743;  344,925;  293,600;  304,450
358,822;  331,925;  354,600;  329,450
358,901;  298,925;  275,600;  303,450
358,980;  303,925;  308,600;  299,450
359,059;  301,925;  326,600;  326,450
359,138;  315,925;  308,600;  324,450
359,216;  321,925;  320,600;  314,450
359,295;  320,925;  325,600;  329,450
359,374;  335,925;  335,600;  301,450
359,453;  304,925;  340,600;  315,450
359,532;  325,925;  307,600;  310,450
359,610;  302,925;  315,600;  307,450
359,689;  319,925;  324,600;  330,450
359,768;  293,925;  305,600;  294,450
359,847;  301,925;  313,600;  287,450
359,925;  310,925;  303,600;  315,450
360,004;  284,925;  295,600;  289,450
360,083;  327,925;  299,600;  319,450
360,161;  314,925;  314,600;  285,450
360,240;  318,925;  272,600;  289,450
360,319;  328,925;  323,600;  309,450
360,397;  313,925;  313,600;  320,450
360,476;  299,925;  291,600;  325,450
360,555;  342,925;  334,600;  340,450
360,633;  300,925;  287,600;  300,450
360,712;  313,925;  299,600;  264,450
360,790;  356,925;  314,600;  320,450
360,869;  323,925;  297,600;  296,450
360,948;  320,925;  278,600;  334,450
361,026;  315,925;  321,600;  276,450
361,105;  314,925;  305,600;  290,450
361,183;  307,925;  294,600;  286,450
361,262;  327,925;  300,600;  280,450
361,340;  299,925;  318,600;  297,450
361,419;  289,925;  282,600;  250,450
361,497;  330,925;  300,600;  335,450
361,576;  301,925;  292,600;  315,450
361,654;  311,925;  361,600;  322,450
361,733;  299,925;  320,600;  300,450
361,811;  344,925;  320,600;  311,450
361,890;  286,925;  267,600;  289,450
361,968;  304,925;  269,600;  303,450
362,046;  325,925;  334,600;  321,450
362,125;  337,925;  353,600;  326,450
362,203;  335,925;  297,600;  287,450
362,282;  348,925;  319,600;  338,450
362,360;  339,925;  296,600;  307,450
362,438;  316,925;  310,600;  302,450
362,517;  364,925;  346,600;  347,450
362,595;  361,925;  312,600;  351,450
362,673;  331,925;  323,600;  317,450
362,752;  349,925;  349,600;  327,450
362,830;  355,925;  338,600;  349,450
362,908;  297,925;  310,600;  307,450
362,986;  322,925;  335,600;  315,450
363,065;  339,925;  313,600;  344,450
363,143;  364,925;  354,600;  367,450
363,221;  327,925;  302,600;  288,450
363,299;  268,925;  304,600;  309,450
363,378;  332,925;  297,600;  335,450
363,456;  291,925;  286,600;  316,450
363,534;  323,925;  318,600;  323,450
363,612;  295,925;  320,600;  312,450
363,690;  333,925;  319,600;  344,450
363,769;  343,925;  340,600;  345,450
363,847;  309,925;  308,600;  356,450
363,925;  293,925;  282,600;  303,450
364,003;  347,925;  343,600;  348,450
364,081;  348,925;  323,600;  338,450
364,159;  341,925;  325,600;  330,450
364,237;  326,925;  351,600;  326,450
364,315;  324,925;  306,600;  311,450
364,393;  361,925;  363,600;  340,450
364,471;  315,925;  345,600;  315,450
364,549;  344,925;  344,600;  337,450
364,627;  352,925;  339,600;  321,450
364,705;  329,925;  344,600;  299,450
364,783;  418,925;  417,600;  294,450
364,861;  999,925; 1050,600;  311,450
364,939; 3671,925; 3619,600;  304,450
365,017;  789,925;  723,600;  298,450
365,095;  394,925;  341,600;  327,450
365,173;  374,925;  398,600;  335,450
365,251;  377,925;  356,600;  345,450
365,329;  525,925;  527,600;  344,450
365,407; 1148,925; 1155,600;  315,450
365,485;  450,925;  464,600;  377,450
365,563;  340,925;  354,600;  339,450
365,641;  366,925;  327,600;  316,450
365,719;  362,925;  361,600;  314,450
365,796;  331,925;  329,600;  309,450
365,874;  318,925;  329,600;  354,450
365,952;  291,925;  334,600;  297,450
366,030;  346,925;  311,600;  318,450
366,108;  334,925;  336,600;  325,450
366,185;  619,925;  644,600;  330,450
366,263;  838,925;  880,600;  333,450
366,341;  375,925;  362,600;  310,450
366,419;  352,925;  335,600;  319,450
366,496;  324,925;  347,600;  336,450
366,574;  321,925;  299,600;  321,450
366,652;  332,925;  381,600;  324,450
366,730;  357,925;  336,600;  375,450
366,807;  327,925;  317,600;  335,450
366,885;  299,925;  315,600;  340,450
366,963;  330,925;  305,600;  332,450
367,040;  365,925;  348,600;  348,450
367,118;  312,925;  315,600;  299,450
367,196;  341,925;  322,600;  355,450
367,273;  307,925;  331,600;  352,450
367,351;  320,925;  314,600;  320,450
367,428;  362,925;  351,600;  360,450
367,506;  313,925;  361,600;  305,450
367,584;  338,925;  352,600;  377,450
367,661;  343,925;  329,600;  332,450
367,739;  299,925;  328,600;  328,450
367,816;  298,925;  343,600;  292,450
367,894;  350,925;  368,600;  312,450
367,971;  326,925;  309,600;  328,450
368,049;  351,925;  376,600;  316,450
368,126;  313,925;  329,600;  318,450
368,204;  332,925;  333,600;  342,450
368,281;  376,925;  375,600;  360,450
368,359;  338,925;  352,600;  332,450
368,436;  331,925;  349,600;  336,450
368,514;  344,925;  344,600;  337,450
368,591;  341,925;  344,600;  347,450
368,668;  333,925;  375,600;  336,450
368,746;  364,925;  387,600;  352,450
368,823;  329,925;  338,600;  380,450
368,901;  353,925;  325,600;  328,450
368,978;  368,925;  329,600;  311,450
369,055;  330,925;  339,600;  332,450
369,133;  357,925;  371,600;  352,450
369,210;  352,925;  328,600;  366,450
369,287;  368,925;  364,600;  366,450
369,365;  379,925;  380,600;  367,450
369,442;  368,925;  347,600;  350,450
369,519;  314,925;  321,600;  298,450
369,596;  363,925;  359,600;  339,450
369,674;  307,925;  327,600;  283,450
369,751;  375,925;  337,600;  371,450
369,828;  373,925;  351,600;  337,450
369,905;  364,925;  358,600;  377,450
369,983;  341,925;  305,600;  327,450
370,060;  329,925;  323,600;  301,450
370,137;  369,925;  394,600;  401,450
370,214;  342,925;  321,600;  374,450
370,291;  345,925;  350,600;  340,450
370,368;  352,925;  356,600;  383,450
370,446;  334,925;  301,600;  350,450
370,523;  334,925;  360,600;  316,450
370,600;  342,925;  368,600;  319,450
370,677;  326,925;  348,600;  332,450
370,754;  333,925;  343,600;  331,450
370,831;  342,925;  352,600;  343,450
370,908;  386,925;  347,600;  374,450
370,985;  344,925;  333,600;  281,450
371,062;  340,925;  341,600;  344,450
371,139;  378,925;  361,600;  363,450
371,216;  360,925;  351,600;  347,450
371,293;  326,925;  329,600;  359,450
371,370;  309,925;  322,600;  314,450
371,447;  367,925;  346,600;  342,450
371,524;  384,925;  346,600;  357,450
371,601;  361,925;  371,600;  341,450
371,678;  348,925;  350,600;  355,450
371,755;  310,925;  366,600;  335,450
371,832;  375,925;  370,600;  375,450
371,909;  325,925;  370,600;  318,450
371,986;  386,925;  371,600;  394,450
372,063;  371,925;  324,600;  329,450
372,140;  338,925;  342,600;  359,450
372,216;  369,925;  356,600;  331,450
372,293;  340,925;  310,600;  347,450
372,370;  358,925;  375,600;  357,450
372,447;  361,925;  329,600;  372,450
372,524;  334,925;  350,600;  371,450
372,601;  370,925;  369,600;  321,450
372,677;  311,925;  344,600;  333,450
372,754;  324,925;  355,600;  360,450
372,831;  358,925;  356,600;  354,450
372,908;  362,925;  380,600;  385,450
372,984;  344,925;  362,600;  356,450
373,061;  333,925;  317,600;  334,450
373,138;  357,925;  367,600;  366,450
373,215;  336,925;  329,600;  317,450
373,291;  342,925;  347,600;  356,450
373,368;  297,925;  378,600;  362,450
373,445;  360,925;  374,600;  345,450
373,521;  332,925;  355,600;  341,450
373,598;  347,925;  354,600;  314,450
373,675;  322,925;  335,600;  358,450
373,751;  342,925;  336,600;  357,450
373,828;  361,925;  338,600;  346,450
373,904;  357,925;  409,600;  394,450
373,981;  313,925;  340,600;  337,450
374,057;  370,925;  343,600;  341,450
374,134;  334,925;  339,600;  316,450
374,211;  344,925;  330,600;  339,450
374,287;  346,925;  336,600;  339,450
374,364;  364,925;  379,600;  370,450
374,440;  316,925;  279,600;  284,450
374,517;  382,925;  367,600;  360,450
374,593;  311,925;  326,600;  299,450
374,670;  338,925;  335,600;  311,450
374,746;  329,925;  347,600;  339,450
374,823;  349,925;  389,600;  364,450
374,899;  354,925;  353,600;  394,450
374,975;  345,925;  336,600;  333,450
375,052;  322,925;  327,600;  327,450
375,128;  318,925;  281,600;  339,450
375,205;  364,925;  346,600;  378,450
375,281;  336,925;  294,600;  331,450
375,357;  344,925;  371,600;  352,450
375,434;  332,925;  313,600;  355,450
375,510;  388,925;  354,600;  323,450
375,586;  377,925;  356,600;  351,450
375,663;  325,925;  314,600;  307,450
375,739;  341,925;  355,600;  380,450
375,815;  325,925;  340,600;  317,450
375,892;  335,925;  340,600;  341,450
375,968;  358,925;  313,600;  325,450
376,044;  356,925;  370,600;  333,450
376,120;  302,925;  311,600;  364,450
376,197;  334,925;  361,600;  328,450
376,273;  337,925;  347,600;  334,450
376,349;  384,925;  386,600;  368,450
376,425;  345,925;  378,600;  336,450
376,501;  352,925;  329,600;  348,450
376,578;  374,925;  332,600;  426,450
376,654;  374,925;  393,600;  365,450
376,730;  337,925;  340,600;  352,450
376,806;  390,925;  346,600;  382,450
376,882;  347,925;  376,600;  332,450
376,958;  364,925;  367,600;  347,450
377,034;  292,925;  320,600;  296,450
377,111;  374,925;  393,600;  358,450
377,187;  406,925;  410,600;  383,450
377,263;  375,925;  397,600;  372,450
377,339;  343,925;  341,600;  319,450
377,415;  355,925;  339,600;  356,450
377,491;  338,925;  362,600;  325,450
377,567;  352,925;  340,600;  369,450
377,643;  373,925;  376,600;  362,450
377,719;  343,925;  368,600;  351,450
377,795;  339,925;  313,600;  350,450
377,871;  334,925;  366,600;  386,450
377,947;  395,925;  343,600;  352,450
378,023;  332,925;  355,600;  339,450
378,099;  341,925;  325,600;  367,450
378,174;  391,925;  364,600;  365,450
378,250;  372,925;  372,600;  389,450
378,326;  389,925;  369,600;  382,450
378,402;  387,925;  359,600;  343,450
378,478;  342,925;  340,600;  355,450
378,554;  363,925;  347,600;  374,450
378,630;  359,925;  369,600;  336,450
378,706;  400,925;  364,600;  321,450
378,781;  387,925;  387,600;  385,450
378,857;  360,925;  359,600;  347,450
378,933;  349,925;  359,600;  335,450
379,009;  335,925;  346,600;  342,450
379,085;  387,925;  419,600;  384,450
379,160;  379,925;  381,600;  366,450
379,236;  385,925;  359,600;  361,450
379,312;  340,925;  337,600;  365,450
379,387;  315,925;  372,600;  349,450
379,463;  349,925;  355,600;  344,450
379,539;  349,925;  408,600;  387,450
379,615;  354,925;  337,600;  364,450
379,690;  401,925;  420,600;  410,450
379,766;  361,925;  389,600;  370,450
379,842;  410,925;  385,600;  366,450
379,917;  382,925;  389,600;  369,450
379,993;  354,925;  370,600;  358,450
380,068;  310,925;  341,600;  349,450
380,144;  356,925;  398,600;  393,450
380,220;  400,925;  388,600;  391,450
380,295;  338,925;  356,600;  356,450
380,371;  328,925;  358,600;  361,450
380,446;  374,925;  418,600;  376,450
380,522;  369,925;  340,600;  360,450
380,597;  367,925;  377,600;  349,450
380,673;  406,925;  395,600;  384,450
380,748;  397,925;  338,600;  344,450
380,824;  352,925;  364,600;  362,450
380,899;  400,925;  371,600;  364,450
380,975;  373,925;  388,600;  402,450
381,050;  354,925;  363,600;  336,450
381,126;  366,925;  370,600;  362,450
381,201;  383,925;  407,600;  405,450
381,277;  355,925;  367,600;  390,450
381,352;  386,925;  389,600;  377,450
381,427;  374,925;  359,600;  370,450
381,503;  414,925;  394,600;  377,450
381,578;  361,925;  363,600;  360,450
381,653;  345,925;  381,600;  387,450
381,729;  378,925;  346,600;  360,450
381,804;  360,925;  373,600;  375,450
381,879;  380,925;  380,600;  366,450
381,955;  374,925;  343,600;  346,450
382,030;  334,925;  346,600;  339,450
382,105;  368,925;  372,600;  372,450
382,181;  385,925;  382,600;  367,450
382,256;  385,925;  373,600;  383,450
382,331;  342,925;  371,600;  375,450
382,406;  362,925;  368,600;  343,450
382,482;  345,925;  371,600;  380,450
382,557;  340,925;  362,600;  335,450
382,632;  362,925;  364,600;  365,450
382,707;  348,925;  393,600;  349,450
382,782;  364,925;  395,600;  385,450
382,857;  356,925;  373,600;  356,450
382,933;  363,925;  354,600;  349,450
383,008;  330,925;  325,600;  336,450
383,083;  347,925;  382,600;  360,450
383,158;  375,925;  375,600;  368,450
383,233;  357,925;  368,600;  362,450
383,308;  369,925;  360,600;  326,450
383,383;  390,925;  394,600;  390,450
383,458;  327,925;  344,600;  340,450
383,533;  343,925;  331,600;  334,450
383,608;  394,925;  367,600;  381,450
383,683;  396,925;  381,600;  367,450
383,758;  410,925;  398,600;  353,450
383,833;  353,925;  343,600;  350,450
383,908;  381,925;  321,600;  367,450
383,983;  348,925;  365,600;  328,450
384,058;  357,925;  340,600;  383,450
384,133;  346,925;  372,600;  376,450
384,208;  344,925;  395,600;  375,450
384,283;  354,925;  362,600;  321,450
384,358;  383,925;  392,600;  390,450
384,433;  330,925;  347,600;  341,450
384,508;  352,925;  339,600;  338,450
384,583;  349,925;  337,600;  355,450
384,658;  340,925;  352,600;  366,450
384,732;  321,925;  329,600;  319,450
384,807;  354,925;  347,600;  366,450
384,882;  381,925;  391,600;  349,450
384,957;  404,925;  348,600;  345,450
385,032;  367,925;  383,600;  373,450
385,106;  372,925;  342,600;  369,450
385,181;  360,925;  353,600;  359,450
385,256;  346,925;  367,600;  336,450
385,331;  353,925;  375,600;  364,450
385,405;  387,925;  383,600;  400,450
385,480;  385,925;  362,600;  372,450
385,555;  407,925;  402,600;  399,450
385,630;  384,925;  369,600;  370,450
385,704;  394,925;  353,600;  390,450
385,779;  337,925;  363,600;  368,450
385,854;  354,925;  364,600;  380,450
385,928;  353,925;  348,600;  365,450
386,003;  419,925;  390,600;  397,450
386,078;  372,925;  374,600;  369,450
386,152;  404,925;  391,600;  412,450
386,227;  340,925;  347,600;  354,450
386,301;  376,925;  389,600;  348,450
386,376;  343,925;  352,600;  346,450
386,450;  357,925;  356,600;  374,450
386,525;  347,925;  357,600;  376,450
386,600;  371,925;  367,600;  381,450
386,674;  343,925;  374,600;  364,450
386,749;  315,925;  395,600;  359,450
386,823;  366,925;  363,600;  377,450
386,898;  407,925;  386,600;  374,450
386,972;  411,925;  383,600;  354,450
387,047;  365,925;  368,600;  364,450
387,121;  381,925;  375,600;  363,450
387,195;  360,925;  359,600;  352,450
387,270;  357,925;  384,600;  385,450
387,344;  401,925;  429,600;  393,450
387,419;  372,925;  367,600;  412,450
387,493;  376,925;  371,600;  377,450
387,567;  341,925;  351,600;  336,450
387,642;  416,925;  383,600;  402,450
387,716;  416,925;  368,600;  378,450
387,790;  355,925;  337,600;  366,450
387,865;  385,925;  351,600;  364,450
387,939;  402,925;  405,600;  406,450
388,013;  381,925;  377,600;  417,450
388,088;  371,925;  361,600;  363,450
388,162;  377,925;  366,600;  355,450
388,236;  386,925;  381,600;  416,450
388,310;  372,925;  368,600;  361,450
388,385;  414,925;  324,600;  400,450
388,459;  383,925;  362,600;  379,450
388,533;  370,925;  378,600;  365,450
388,607;  366,925;  374,600;  378,450
388,682;  373,925;  369,600;  394,450
388,756;  344,925;  375,600;  378,450
388,830;  349,925;  378,600;  413,450
388,904;  390,925;  382,600;  382,450
388,978;  362,925;  368,600;  361,450
389,052;  366,925;  390,600;  343,450
389,126;  355,925;  353,600;  387,450
389,200;  370,925;  376,600;  362,450
389,275;  346,925;  382,600;  389,450
389,349;  374,925;  405,600;  380,450
389,423;  328,925;  380,600;  369,450
389,497;  363,925;  426,600;  377,450
389,571;  376,925;  391,600;  375,450
389,645;  372,925;  378,600;  388,450
389,719;  336,925;  384,600;  388,450
389,793;  345,925;  341,600;  322,450
389,867;  405,925;  410,600;  386,450
389,941;  357,925;  367,600;  369,450
390,015;  357,925;  348,600;  372,450
390,089;  347,925;  369,600;  344,450
390,163;  348,925;  368,600;  375,450
390,237;  362,925;  356,600;  361,450
390,310;  364,925;  393,600;  366,450
390,384;  388,925;  383,600;  344,450
390,458;  389,925;  414,600;  432,450
390,532;  393,925;  401,600;  395,450
390,606;  368,925;  361,600;  328,450
390,680;  357,925;  354,600;  373,450
390,754;  335,925;  373,600;  342,450
390,827;  426,925;  382,600;  388,450
390,901;  418,925;  362,600;  377,450
390,975;  355,925;  366,600;  368,450
391,049;  356,925;  374,600;  392,450
391,123;  351,925;  342,600;  367,450
391,196;  388,925;  344,600;  368,450
391,270;  374,925;  372,600;  366,450
391,344;  377,925;  384,600;  374,450
391,418;  363,925;  368,600;  366,450
391,491;  339,925;  362,600;  365,450
391,565;  363,925;  341,600;  346,450
391,639;  378,925;  379,600;  381,450
391,712;  380,925;  373,600;  385,450
391,786;  375,925;  401,600;  429,450
391,860;  349,925;  354,600;  354,450
391,933;  345,925;  366,600;  333,450
392,007;  370,925;  393,600;  364,450
392,081;  429,925;  404,600;  366,450
392,154;  379,925;  366,600;  394,450
392,228;  394,925;  392,600;  387,450
392,301;  382,925;  366,600;  402,450
392,375;  412,925;  394,600;  406,450
392,448;  368,925;  397,600;  375,450
392,522;  373,925;  382,600;  383,450
392,595;  342,925;  389,600;  365,450
392,669;  372,925;  386,600;  367,450
392,742;  379,925;  378,600;  401,450
392,816;  409,925;  376,600;  383,450
392,889;  372,925;  392,600;  401,450
392,963;  400,925;  400,600;  382,450
393,036;  397,925;  366,600;  401,450
393,110;  387,925;  388,600;  376,450
393,183;  408,925;  407,600;  399,450
393,257;  403,925;  437,600;  408,450
393,330;  365,925;  373,600;  391,450
393,403;  390,925;  410,600;  372,450
393,477;  357,925;  347,600;  364,450
393,550;  387,925;  413,600;  387,450
393,623;  355,925;  374,600;  402,450
393,697;  414,925;  404,600;  411,450
393,770;  344,925;  386,600;  364,450
393,843;  406,925;  419,600;  412,450
393,917;  389,925;  400,600;  407,450
393,990;  437,925;  378,600;  395,450
394,063;  412,925;  403,600;  375,450
394,136;  373,925;  390,600;  390,450
394,210;  364,925;  393,600;  380,450
394,283;  390,925;  385,600;  395,450
394,356;  404,925;  410,600;  373,450
394,429;  405,925;  399,600;  357,450
394,502;  370,925;  404,600;  373,450
394,576;  433,925;  416,600;  404,450
394,649;  362,925;  376,600;  381,450
394,722;  397,925;  390,600;  390,450
394,795;  418,925;  413,600;  406,450
394,868;  372,925;  369,600;  390,450
394,941;  380,925;  371,600;  368,450
395,014;  440,925;  419,600;  416,450
395,088;  420,925;  404,600;  391,450
395,161;  388,925;  402,600;  399,450
395,234;  419,925;  390,600;  397,450
395,307;  397,925;  413,600;  388,450
395,380;  401,925;  393,600;  392,450
395,453;  435,925;  439,600;  425,450
395,526;  393,925;  430,600;  407,450
395,599;  431,925;  422,600;  432,450
395,672;  400,925;  378,600;  408,450
395,745;  426,925;  400,600;  390,450
395,818;  379,925;  385,600;  376,450
395,891;  392,925;  408,600;  379,450
395,964;  399,925;  398,600;  436,450
396,036;  383,925;  400,600;  390,450
396,109;  362,925;  399,600;  381,450
396,182;  383,925;  392,600;  382,450
396,255;  405,925;  417,600;  383,450
396,328;  429,925;  412,600;  432,450
396,401;  365,925;  363,600;  381,450
396,474;  372,925;  399,600;  360,450
396,547;  387,925;  411,600;  417,450
396,619;  348,925;  384,600;  393,450
396,692;  394,925;  371,600;  354,450
396,765;  346,925;  375,600;  376,450
396,838;  377,925;  367,600;  390,450
396,911;  343,925;  363,600;  352,450
396,983;  379,925;  385,600;  396,450
397,056;  366,925;  375,600;  367,450
397,129;  358,925;  369,600;  368,450
397,201;  376,925;  413,600;  395,450
397,274;  409,925;  379,600;  382,450
397,347;  345,925;  364,600;  378,450
397,420;  382,925;  373,600;  379,450
397,492;  382,925;  404,600;  380,450
397,565;  371,925;  372,600;  365,450
397,637;  390,925;  371,600;  361,450
397,710;  360,925;  349,600;  341,450
397,783;  422,925;  444,600;  401,450
397,855;  356,925;  363,600;  346,450
397,928;  401,925;  381,600;  330,450
398,000;  428,925;  369,600;  384,450
398,073;  383,925;  376,600;  372,450
398,146;  368,925;  365,600;  358,450
398,218;  387,925;  417,600;  363,450
398,291;  384,925;  398,600;  385,450
398,363;  371,925;  370,600;  358,450
398,436;  363,925;  369,600;  360,450
398,508;  395,925;  378,600;  369,450
398,581;  359,925;  368,600;  367,450
398,653;  385,925;  318,600;  382,450
398,726;  383,925;  376,600;  371,450
398,798;  357,925;  390,600;  376,450
398,870;  417,925;  374,600;  374,450
398,943;  369,925;  371,600;  357,450
399,015;  352,925;  362,600;  383,450
399,088;  397,925;  377,600;  373,450
399,160;  368,925;  370,600;  348,450
399,232;  354,925;  332,600;  349,450
399,305;  376,925;  379,600;  362,450
399,377;  391,925;  350,600;  343,450
399,449;  372,925;  398,600;  388,450
399,522;  415,925;  442,600;  416,450
399,594;  356,925;  359,600;  346,450
399,666;  361,925;  393,600;  361,450
399,738;  355,925;  378,600;  375,450
399,811;  401,925;  370,600;  388,450
399,883;  393,925;  392,600;  378,450
399,955;  385,925;  429,600;  331,450
400,027;  322,925;  342,600;  364,450
400,100;  389,925;  402,600;  427,450
400,172;  350,925;  360,600;  354,450
400,244;  372,925;  369,600;  361,450
400,316;  378,925;  396,600;  381,450
400,388;  388,925;  408,600;  368,450
400,460;  394,925;  350,600;  359,450
400,532;  348,925;  329,600;  337,450
400,605;  375,925;  378,600;  368,450
400,677;  378,925;  389,600;  380,450
400,749;  399,925;  403,600;  406,450
400,821;  400,925;  384,600;  385,450
400,893;  343,925;  364,600;  384,450
400,965;  357,925;  390,600;  380,450
401,037;  368,925;  376,600;  402,450
401,109;  349,925;  363,600;  365,450
401,181;  389,925;  383,600;  398,450

