p100promedio
Integration time [ms]:   0,150
Averaging Nr. [scans]: 100
Smoothing Nr. [pixels]: 0
Data measured with spectrometer [name]: 7416147SP
Wave   ;Sample   ;Dark     ;Reference
[nm]   ;[counts] ;[counts] ;[counts] 

230,218;  288,850;  284,600;  274,450
230,311;  314,120;  306,600;  296,450
230,404;  304,180;  298,600;  326,450
230,497;  308,980;  295,600;  309,450
230,591;  328,360;  342,600;  328,450
230,684;  319,010;  317,600;  333,450
230,777;  305,470;  318,600;  312,450
230,870;  308,020;  330,600;  321,450
230,964;  304,030;  321,600;  306,450
231,057;  335,520;  306,600;  332,450
231,150;  329,490;  320,600;  304,450
231,243;  324,870;  310,600;  310,450
231,336;  323,330;  334,600;  326,450
231,430;  313,240;  320,600;  279,450
231,523;  316,350;  346,600;  304,450
231,616;  300,730;  297,600;  290,450
231,709;  338,500;  328,600;  315,450
231,802;  308,290;  280,600;  295,450
231,895;  305,240;  293,600;  313,450
231,988;  318,060;  312,600;  320,450
232,082;  301,670;  316,600;  281,450
232,175;  308,100;  289,600;  279,450
232,268;  307,850;  319,600;  301,450
232,361;  307,340;  288,600;  264,450
232,454;  327,260;  297,600;  320,450
232,547;  324,500;  333,600;  272,450
232,640;  299,370;  314,600;  287,450
232,733;  321,220;  297,600;  300,450
232,826;  300,800;  303,600;  270,450
232,919;  319,670;  318,600;  294,450
233,012;  295,710;  322,600;  292,450
233,105;  304,080;  318,600;  283,450
233,199;  306,960;  324,600;  298,450
233,292;  298,390;  293,600;  307,450
233,385;  266,120;  262,600;  233,450
233,478;  298,220;  302,600;  272,450
233,571;  328,550;  314,600;  293,450
233,664;  311,570;  341,600;  283,450
233,757;  283,650;  254,600;  231,450
233,850;  286,470;  272,600;  248,450
233,943;  299,220;  298,600;  272,450
234,035;  305,750;  318,600;  292,450
234,128;  288,370;  282,600;  265,450
234,221;  303,030;  310,600;  293,450
234,314;  313,380;  333,600;  318,450
234,407;  317,280;  338,600;  286,450
234,500;  285,550;  286,600;  280,450
234,593;  293,980;  280,600;  290,450
234,686;  301,700;  276,600;  256,450
234,779;  293,830;  270,600;  275,450
234,872;  287,990;  276,600;  261,450
234,965;  295,950;  298,600;  286,450
235,058;  280,840;  269,600;  263,450
235,150;  295,250;  311,600;  286,450
235,243;  286,740;  280,600;  311,450
235,336;  307,690;  317,600;  296,450
235,429;  280,010;  258,600;  241,450
235,522;  337,310;  352,600;  293,450
235,615;  267,390;  309,600;  253,450
235,707;  286,180;  289,600;  277,450
235,800;  293,620;  302,600;  268,450
235,893;  298,670;  328,600;  262,450
235,986;  303,440;  305,600;  312,450
236,079;  291,910;  310,600;  308,450
236,171;  277,310;  272,600;  270,450
236,264;  317,800;  310,600;  282,450
236,357;  294,600;  289,600;  297,450
236,450;  316,600;  314,600;  308,450
236,542;  274,390;  286,600;  258,450
236,635;  319,950;  319,600;  287,450
236,728;  293,310;  276,600;  273,450
236,821;  287,370;  270,600;  268,450
236,913;  282,520;  326,600;  268,450
237,006;  274,160;  300,600;  257,450
237,099;  292,100;  289,600;  271,450
237,191;  309,670;  345,600;  288,450
237,284;  274,820;  256,600;  282,450
237,377;  301,700;  294,600;  312,450
237,470;  293,070;  291,600;  256,450
237,562;  285,540;  266,600;  261,450
237,655;  329,930;  342,600;  294,450
237,747;  300,560;  325,600;  263,450
237,840;  317,360;  292,600;  302,450
237,933;  304,150;  327,600;  284,450
238,025;  308,990;  338,600;  306,450
238,118;  285,740;  306,600;  287,450
238,211;  278,070;  282,600;  227,450
238,303;  274,230;  277,600;  273,450
238,396;  274,260;  289,600;  270,450
238,488;  298,400;  300,600;  281,450
238,581;  292,020;  306,600;  235,450
238,673;  293,800;  304,600;  273,450
238,766;  288,100;  268,600;  282,450
238,859;  280,770;  282,600;  277,450
238,951;  286,860;  295,600;  280,450
239,044;  283,000;  270,600;  283,450
239,136;  278,100;  269,600;  284,450
239,229;  287,220;  297,600;  291,450
239,321;  281,230;  262,600;  248,450
239,414;  300,170;  289,600;  288,450
239,506;  292,030;  280,600;  267,450
239,599;  323,010;  352,600;  292,450
239,691;  293,720;  306,600;  269,450
239,784;  311,100;  296,600;  288,450
239,876;  303,870;  280,600;  288,450
239,969;  292,070;  287,600;  281,450
240,061;  276,980;  277,600;  262,450
240,153;  285,810;  260,600;  278,450
240,246;  291,970;  295,600;  292,450
240,338;  320,590;  309,600;  324,450
240,431;  275,110;  277,600;  282,450
240,523;  278,280;  300,600;  237,450
240,615;  306,760;  293,600;  321,450
240,708;  314,770;  355,600;  292,450
240,800;  293,350;  302,600;  288,450
240,893;  276,780;  274,600;  261,450
240,985;  293,630;  321,600;  270,450
241,077;  273,430;  268,600;  262,450
241,170;  311,100;  313,600;  286,450
241,262;  299,390;  284,600;  284,450
241,354;  260,100;  246,600;  244,450
241,447;  286,380;  286,600;  271,450
241,539;  277,820;  295,600;  247,450
241,631;  323,730;  312,600;  279,450
241,724;  266,820;  261,600;  246,450
241,816;  284,140;  258,600;  264,450
241,908;  284,770;  278,600;  263,450
242,000;  285,480;  283,600;  263,450
242,093;  286,590;  303,600;  261,450
242,185;  284,670;  306,600;  269,450
242,277;  279,150;  282,600;  242,450
242,369;  290,380;  278,600;  269,450
242,462;  282,670;  271,600;  247,450
242,554;  285,740;  253,600;  266,450
242,646;  289,000;  282,600;  270,450
242,738;  308,790;  320,600;  281,450
242,830;  267,460;  292,600;  230,450
242,923;  302,230;  309,600;  303,450
243,015;  272,270;  288,600;  269,450
243,107;  274,870;  280,600;  253,450
243,199;  280,670;  309,600;  300,450
243,291;  279,290;  319,600;  253,450
243,383;  259,260;  240,600;  273,450
243,476;  274,610;  257,600;  282,450
243,568;  286,340;  293,600;  284,450
243,660;  279,240;  260,600;  268,450
243,752;  288,850;  305,600;  270,450
243,844;  305,750;  299,600;  284,450
243,936;  296,230;  316,600;  299,450
244,028;  308,890;  332,600;  290,450
244,120;  260,620;  267,600;  230,450
244,212;  295,730;  298,600;  289,450
244,305;  268,980;  267,600;  270,450
244,397;  294,640;  315,600;  267,450
244,489;  310,910;  303,600;  285,450
244,581;  303,580;  301,600;  279,450
244,673;  288,050;  286,600;  252,450
244,765;  293,290;  277,600;  293,450
244,857;  289,530;  303,600;  251,450
244,949;  293,100;  305,600;  282,450
245,041;  261,830;  250,600;  223,450
245,133;  299,620;  294,600;  292,450
245,225;  282,370;  258,600;  248,450
245,317;  292,110;  253,600;  267,450
245,409;  274,720;  282,600;  263,450
245,501;  293,910;  286,600;  265,450
245,593;  294,080;  328,600;  278,450
245,685;  289,890;  330,600;  286,450
245,776;  287,010;  298,600;  267,450
245,868;  274,140;  308,600;  263,450
245,960;  264,000;  242,600;  252,450
246,052;  311,250;  291,600;  307,450
246,144;  295,400;  282,600;  285,450
246,236;  285,970;  296,600;  257,450
246,328;  293,380;  285,600;  287,450
246,420;  284,470;  282,600;  270,450
246,512;  313,230;  303,600;  295,450
246,604;  284,910;  280,600;  278,450
246,695;  275,960;  275,600;  268,450
246,787;  300,450;  288,600;  299,450
246,879;  295,920;  296,600;  275,450
246,971;  305,160;  305,600;  285,450
247,063;  276,650;  281,600;  253,450
247,155;  306,640;  295,600;  240,450
247,246;  291,380;  305,600;  285,450
247,338;  296,330;  297,600;  287,450
247,430;  305,110;  298,600;  312,450
247,522;  305,470;  294,600;  294,450
247,613;  304,240;  287,600;  278,450
247,705;  298,920;  302,600;  286,450
247,797;  319,010;  322,600;  301,450
247,889;  309,910;  294,600;  286,450
247,980;  310,460;  318,600;  273,450
248,072;  319,730;  315,600;  275,450
248,164;  341,450;  368,600;  297,450
248,256;  293,560;  280,600;  302,450
248,347;  322,160;  312,600;  275,450
248,439;  288,280;  302,600;  260,450
248,531;  311,270;  301,600;  297,450
248,622;  312,000;  315,600;  318,450
248,714;  284,660;  303,600;  257,450
248,806;  305,050;  301,600;  287,450
248,897;  297,980;  266,600;  290,450
248,989;  267,770;  260,600;  246,450
249,081;  290,210;  291,600;  305,450
249,172;  300,310;  289,600;  264,450
249,264;  280,230;  310,600;  303,450
249,356;  279,290;  274,600;  253,450
249,447;  290,340;  287,600;  283,450
249,539;  288,940;  289,600;  288,450
249,630;  298,660;  296,600;  286,450
249,722;  320,700;  310,600;  305,450
249,813;  291,230;  302,600;  256,450
249,905;  299,540;  319,600;  291,450
249,997;  289,610;  270,600;  248,450
250,088;  295,370;  295,600;  285,450
250,180;  296,230;  280,600;  288,450
250,271;  292,350;  296,600;  268,450
250,363;  331,940;  329,600;  307,450
250,454;  286,060;  268,600;  238,450
250,546;  298,940;  271,600;  272,450
250,637;  274,170;  285,600;  242,450
250,729;  282,510;  267,600;  250,450
250,820;  303,630;  306,600;  297,450
250,912;  278,230;  299,600;  243,450
251,003;  291,080;  285,600;  296,450
251,095;  293,930;  296,600;  273,450
251,186;  287,180;  269,600;  253,450
251,277;  290,550;  276,600;  290,450
251,369;  296,950;  295,600;  275,450
251,460;  292,220;  272,600;  272,450
251,552;  303,640;  293,600;  292,450
251,643;  297,560;  292,600;  276,450
251,735;  297,990;  303,600;  241,450
251,826;  293,620;  313,600;  259,450
251,917;  318,650;  325,600;  258,450
252,009;  320,680;  338,600;  254,450
252,100;  325,210;  343,600;  266,450
252,191;  346,120;  337,600;  260,450
252,283;  337,410;  328,600;  299,450
252,374;  364,840;  372,600;  289,450
252,465;  391,440;  390,600;  301,450
252,557;  387,540;  393,600;  251,450
252,648;  382,340;  378,600;  258,450
252,739;  425,140;  397,600;  267,450
252,831;  419,940;  439,600;  250,450
252,922;  461,730;  440,600;  266,450
253,013;  506,120;  520,600;  241,450
253,104;  569,610;  576,600;  255,450
253,196;  680,720;  712,600;  265,450
253,287;  838,540;  807,600;  289,450
253,378; 1216,130; 1233,600;  257,450
253,469; 4229,470; 4083,600;  246,450
253,561;23105,740;23239,600;  253,450
253,652;42281,180;42949,602;  272,450
253,743; 5719,280; 5893,600;  210,450
253,834;  618,110;  622,600;  260,450
253,926;  498,980;  531,600;  249,450
254,017;  478,480;  459,600;  280,450
254,108;  447,440;  528,600;  290,450
254,199;  426,460;  418,600;  277,450
254,290;  429,180;  380,600;  290,450
254,381;  405,640;  429,600;  276,450
254,472;  410,090;  437,600;  250,450
254,564;  410,840;  411,600;  327,450
254,655;  387,930;  392,600;  304,450
254,746;  342,610;  345,600;  225,450
254,837;  370,790;  372,600;  282,450
254,928;  351,120;  368,600;  247,450
255,019;  358,890;  375,600;  281,450
255,110;  363,240;  357,600;  302,450
255,201;  343,920;  318,600;  284,450
255,292;  372,810;  381,600;  271,450
255,383;  341,730;  347,600;  265,450
255,474;  329,980;  329,600;  248,450
255,566;  343,550;  366,600;  271,450
255,657;  339,600;  350,600;  306,450
255,748;  303,480;  292,600;  235,450
255,839;  312,100;  331,600;  282,450
255,930;  319,430;  292,600;  302,450
256,021;  325,750;  336,600;  297,450
256,112;  304,680;  296,600;  257,450
256,203;  335,050;  339,600;  315,450
256,294;  319,110;  321,600;  265,450
256,384;  297,610;  279,600;  261,450
256,475;  307,820;  289,600;  284,450
256,566;  297,210;  297,600;  274,450
256,657;  288,300;  291,600;  267,450
256,748;  291,350;  302,600;  280,450
256,839;  285,700;  281,600;  274,450
256,930;  290,700;  278,600;  260,450
257,021;  316,330;  328,600;  283,450
257,112;  313,100;  311,600;  327,450
257,203;  266,610;  268,600;  240,450
257,294;  264,790;  276,600;  257,450
257,385;  296,960;  284,600;  272,450
257,475;  288,070;  277,600;  255,450
257,566;  301,470;  313,600;  267,450
257,657;  278,220;  339,600;  264,450
257,748;  282,410;  283,600;  252,450
257,839;  289,420;  319,600;  306,450
257,930;  292,880;  276,600;  275,450
258,020;  274,800;  278,600;  281,450
258,111;  266,970;  285,600;  256,450
258,202;  296,170;  309,600;  258,450
258,293;  284,810;  267,600;  255,450
258,384;  309,160;  329,600;  295,450
258,474;  293,280;  296,600;  244,450
258,565;  269,390;  250,600;  252,450
258,656;  294,660;  306,600;  257,450
258,747;  274,820;  293,600;  255,450
258,837;  279,260;  266,600;  231,450
258,928;  281,870;  247,600;  280,450
259,019;  271,770;  272,600;  264,450
259,109;  267,550;  264,600;  254,450
259,200;  289,780;  292,600;  291,450
259,291;  268,770;  246,600;  297,450
259,381;  294,830;  309,600;  264,450
259,472;  297,530;  299,600;  272,450
259,563;  306,170;  307,600;  273,450
259,653;  280,910;  281,600;  247,450
259,744;  269,470;  280,600;  260,450
259,835;  306,300;  284,600;  274,450
259,925;  277,630;  257,600;  276,450
260,016;  289,740;  303,600;  282,450
260,107;  265,020;  264,600;  265,450
260,197;  284,200;  279,600;  258,450
260,288;  275,660;  263,600;  273,450
260,378;  269,420;  274,600;  244,450
260,469;  288,140;  299,600;  273,450
260,560;  263,770;  267,600;  276,450
260,650;  270,930;  269,600;  265,450
260,741;  276,930;  279,600;  256,450
260,831;  278,860;  246,600;  276,450
260,922;  266,420;  271,600;  258,450
261,012;  273,700;  271,600;  256,450
261,103;  303,760;  320,600;  294,450
261,193;  300,140;  317,600;  320,450
261,284;  265,990;  256,600;  254,450
261,374;  296,070;  295,600;  253,450
261,465;  284,760;  321,600;  304,450
261,555;  281,110;  271,600;  275,450
261,646;  290,830;  290,600;  300,450
261,736;  288,270;  265,600;  287,450
261,827;  281,320;  293,600;  256,450
261,917;  311,010;  294,600;  344,450
262,007;  284,700;  269,600;  289,450
262,098;  286,330;  334,600;  256,450
262,188;  326,800;  316,600;  305,450
262,279;  296,690;  290,600;  292,450
262,369;  286,790;  276,600;  282,450
262,459;  284,230;  262,600;  260,450
262,550;  300,500;  314,600;  290,450
262,640;  274,120;  261,600;  274,450
262,731;  295,880;  302,600;  298,450
262,821;  305,020;  287,600;  323,450
262,911;  296,340;  312,600;  268,450
263,002;  284,440;  278,600;  271,450
263,092;  302,570;  292,600;  309,450
263,182;  278,350;  280,600;  257,450
263,273;  281,880;  277,600;  261,450
263,363;  296,960;  309,600;  284,450
263,453;  264,010;  266,600;  259,450
263,543;  289,130;  289,600;  326,450
263,634;  259,930;  263,600;  262,450
263,724;  289,880;  278,600;  276,450
263,814;  305,720;  304,600;  288,450
263,904;  280,930;  270,600;  267,450
263,995;  315,800;  306,600;  321,450
264,085;  288,780;  301,600;  259,450
264,175;  288,780;  284,600;  306,450
264,265;  318,560;  305,600;  298,450
264,356;  268,430;  260,600;  289,450
264,446;  305,360;  296,600;  298,450
264,536;  292,540;  270,600;  297,450
264,626;  316,340;  315,600;  295,450
264,716;  298,740;  330,600;  277,450
264,806;  310,030;  327,600;  306,450
264,897;  257,010;  255,600;  273,450
264,987;  305,290;  310,600;  286,450
265,077;  311,800;  297,600;  285,450
265,167;  368,540;  394,600;  346,450
265,257;  329,390;  333,600;  273,450
265,347;  323,140;  331,600;  286,450
265,437;  312,930;  304,600;  289,450
265,527;  307,140;  314,600;  292,450
265,617;  281,080;  292,600;  265,450
265,708;  309,560;  330,600;  308,450
265,798;  306,060;  315,600;  301,450
265,888;  297,810;  275,600;  270,450
265,978;  292,230;  274,600;  242,450
266,068;  308,270;  291,600;  316,450
266,158;  291,820;  288,600;  254,450
266,248;  269,310;  305,600;  248,450
266,338;  308,940;  307,600;  293,450
266,428;  297,510;  294,600;  259,450
266,518;  309,270;  321,600;  320,450
266,608;  295,180;  245,600;  273,450
266,698;  267,790;  284,600;  256,450
266,788;  269,200;  263,600;  248,450
266,878;  325,380;  350,600;  317,450
266,968;  302,840;  282,600;  304,450
267,058;  292,120;  280,600;  292,450
267,147;  298,860;  327,600;  300,450
267,237;  290,910;  293,600;  276,450
267,327;  283,250;  292,600;  276,450
267,417;  297,480;  320,600;  264,450
267,507;  288,760;  297,600;  294,450
267,597;  278,450;  273,600;  272,450
267,687;  281,340;  268,600;  286,450
267,777;  277,650;  267,600;  270,450
267,867;  307,940;  321,600;  296,450
267,956;  298,520;  282,600;  257,450
268,046;  301,640;  306,600;  298,450
268,136;  294,480;  265,600;  291,450
268,226;  274,130;  269,600;  261,450
268,316;  276,480;  266,600;  262,450
268,406;  286,760;  268,600;  338,450
268,495;  279,930;  278,600;  259,450
268,585;  302,970;  304,600;  263,450
268,675;  278,710;  296,600;  260,450
268,765;  294,260;  296,600;  287,450
268,854;  281,070;  277,600;  291,450
268,944;  287,020;  288,600;  299,450
269,034;  281,510;  313,600;  279,450
269,124;  281,130;  283,600;  286,450
269,213;  279,880;  277,600;  255,450
269,303;  284,000;  290,600;  247,450
269,393;  299,250;  265,600;  307,450
269,483;  296,740;  338,600;  273,450
269,572;  282,010;  295,600;  243,450
269,662;  274,930;  286,600;  301,450
269,752;  311,180;  320,600;  299,450
269,841;  261,880;  270,600;  247,450
269,931;  279,470;  264,600;  276,450
270,021;  295,620;  299,600;  295,450
270,110;  282,530;  286,600;  268,450
270,200;  288,260;  329,600;  299,450
270,289;  275,230;  258,600;  279,450
270,379;  299,490;  315,600;  282,450
270,469;  285,850;  297,600;  273,450
270,558;  299,400;  300,600;  286,450
270,648;  279,700;  266,600;  245,450
270,737;  283,540;  288,600;  271,450
270,827;  307,730;  279,600;  263,450
270,916;  284,900;  266,600;  280,450
271,006;  291,360;  287,600;  287,450
271,096;  314,050;  312,600;  334,450
271,185;  281,890;  307,600;  299,450
271,275;  298,920;  305,600;  279,450
271,364;  279,530;  300,600;  286,450
271,454;  309,850;  301,600;  273,450
271,543;  293,160;  295,600;  279,450
271,633;  287,190;  293,600;  257,450
271,722;  283,530;  240,600;  257,450
271,812;  282,280;  255,600;  299,450
271,901;  291,150;  276,600;  286,450
271,990;  288,670;  293,600;  267,450
272,080;  285,760;  282,600;  284,450
272,169;  291,400;  339,600;  288,450
272,259;  286,760;  319,600;  275,450
272,348;  300,290;  291,600;  305,450
272,438;  290,000;  302,600;  301,450
272,527;  299,080;  288,600;  290,450
272,616;  295,140;  295,600;  300,450
272,706;  317,840;  319,600;  313,450
272,795;  309,640;  285,600;  290,450
272,884;  288,010;  302,600;  294,450
272,974;  315,410;  281,600;  279,450
273,063;  330,590;  361,600;  290,450
273,152;  300,120;  299,600;  296,450
273,242;  318,850;  296,600;  311,450
273,331;  318,170;  306,600;  299,450
273,420;  299,910;  296,600;  313,450
273,510;  301,270;  292,600;  311,450
273,599;  298,790;  323,600;  312,450
273,688;  297,910;  311,600;  299,450
273,778;  278,650;  266,600;  259,450
273,867;  310,570;  287,600;  312,450
273,956;  299,590;  303,600;  273,450
274,045;  267,690;  263,600;  236,450
274,135;  294,280;  317,600;  317,450
274,224;  287,080;  316,600;  295,450
274,313;  299,540;  299,600;  294,450
274,402;  278,150;  263,600;  266,450
274,491;  306,110;  277,600;  286,450
274,581;  296,400;  302,600;  266,450
274,670;  287,310;  311,600;  303,450
274,759;  294,010;  303,600;  283,450
274,848;  268,580;  275,600;  301,450
274,937;  284,220;  276,600;  293,450
275,026;  284,440;  298,600;  255,450
275,116;  314,720;  323,600;  309,450
275,205;  289,250;  263,600;  231,450
275,294;  319,530;  333,600;  302,450
275,383;  295,240;  253,600;  278,450
275,472;  286,710;  286,600;  299,450
275,561;  283,090;  299,600;  300,450
275,650;  302,410;  289,600;  281,450
275,739;  290,770;  268,600;  287,450
275,828;  268,370;  262,600;  259,450
275,917;  305,910;  318,600;  305,450
276,006;  293,790;  255,600;  304,450
276,095;  290,580;  276,600;  294,450
276,184;  301,200;  317,600;  317,450
276,273;  297,200;  270,600;  297,450
276,362;  270,580;  260,600;  256,450
276,451;  286,720;  271,600;  286,450
276,540;  288,630;  259,600;  271,450
276,629;  287,150;  274,600;  290,450
276,718;  263,790;  268,600;  258,450
276,807;  264,590;  275,600;  256,450
276,896;  275,600;  269,600;  277,450
276,985;  280,440;  287,600;  255,450
277,074;  293,770;  270,600;  267,450
277,163;  289,320;  289,600;  281,450
277,252;  272,200;  269,600;  278,450
277,341;  281,030;  272,600;  248,450
277,430;  271,970;  239,600;  255,450
277,519;  292,530;  304,600;  293,450
277,608;  258,060;  254,600;  244,450
277,696;  260,050;  272,600;  279,450
277,785;  278,170;  255,600;  276,450
277,874;  293,010;  285,600;  259,450
277,963;  280,210;  273,600;  248,450
278,052;  261,280;  264,600;  286,450
278,141;  284,660;  289,600;  267,450
278,229;  288,800;  279,600;  278,450
278,318;  264,590;  278,600;  269,450
278,407;  281,210;  288,600;  264,450
278,496;  284,420;  319,600;  277,450
278,585;  297,080;  288,600;  297,450
278,673;  254,200;  257,600;  251,450
278,762;  263,950;  238,600;  264,450
278,851;  280,700;  293,600;  272,450
278,940;  298,100;  293,600;  318,450
279,028;  290,830;  271,600;  284,450
279,117;  281,510;  290,600;  283,450
279,206;  279,390;  260,600;  254,450
279,294;  279,930;  280,600;  268,450
279,383;  281,280;  272,600;  289,450
279,472;  292,340;  311,600;  252,450
279,561;  279,560;  264,600;  275,450
279,649;  302,530;  305,600;  283,450
279,738;  250,930;  229,600;  266,450
279,827;  303,420;  285,600;  272,450
279,915;  272,350;  283,600;  248,450
280,004;  278,820;  273,600;  285,450
280,092;  302,860;  286,600;  275,450
280,181;  281,400;  284,600;  249,450
280,270;  286,200;  280,600;  236,450
280,358;  297,980;  299,600;  288,450
280,447;  262,710;  246,600;  240,450
280,535;  274,100;  284,600;  259,450
280,624;  270,800;  291,600;  256,450
280,713;  271,960;  267,600;  266,450
280,801;  291,370;  303,600;  274,450
280,890;  289,730;  262,600;  274,450
280,978;  276,150;  267,600;  239,450
281,067;  246,900;  229,600;  244,450
281,155;  270,900;  267,600;  279,450
281,244;  312,850;  301,600;  299,450
281,332;  289,420;  252,600;  297,450
281,421;  267,640;  273,600;  229,450
281,509;  282,740;  266,600;  268,450
281,598;  260,700;  255,600;  241,450
281,686;  286,420;  300,600;  277,450
281,775;  282,950;  283,600;  280,450
281,863;  275,530;  244,600;  264,450
281,951;  273,900;  254,600;  256,450
282,040;  308,390;  289,600;  320,450
282,128;  297,300;  289,600;  290,450
282,217;  266,030;  255,600;  246,450
282,305;  299,730;  291,600;  280,450
282,393;  281,600;  332,600;  266,450
282,482;  281,490;  314,600;  268,450
282,570;  269,350;  274,600;  279,450
282,658;  281,080;  295,600;  277,450
282,747;  269,080;  257,600;  278,450
282,835;  311,460;  319,600;  305,450
282,923;  263,540;  230,600;  262,450
283,012;  289,060;  268,600;  305,450
283,100;  268,880;  263,600;  230,450
283,188;  253,230;  244,600;  243,450
283,277;  283,430;  279,600;  282,450
283,365;  269,330;  252,600;  253,450
283,453;  258,080;  253,600;  228,450
283,542;  288,230;  293,600;  259,450
283,630;  275,910;  259,600;  271,450
283,718;  267,940;  271,600;  247,450
283,806;  238,680;  225,600;  226,450
283,894;  268,370;  276,600;  274,450
283,983;  275,930;  256,600;  279,450
284,071;  281,500;  307,600;  269,450
284,159;  305,540;  319,600;  305,450
284,247;  284,230;  296,600;  287,450
284,335;  280,070;  267,600;  263,450
284,424;  281,170;  287,600;  269,450
284,512;  276,210;  295,600;  248,450
284,600;  274,190;  261,600;  236,450
284,688;  310,200;  297,600;  325,450
284,776;  282,600;  259,600;  277,450
284,864;  302,570;  327,600;  300,450
284,952;  286,410;  291,600;  276,450
285,041;  288,650;  286,600;  304,450
285,129;  298,100;  304,600;  290,450
285,217;  295,480;  309,600;  280,450
285,305;  310,280;  297,600;  304,450
285,393;  270,220;  255,600;  268,450
285,481;  288,030;  292,600;  274,450
285,569;  281,130;  297,600;  281,450
285,657;  291,650;  272,600;  276,450
285,745;  288,120;  334,600;  282,450
285,833;  288,230;  277,600;  294,450
285,921;  297,320;  301,600;  299,450
286,009;  294,850;  308,600;  308,450
286,097;  289,900;  313,600;  288,450
286,185;  278,370;  294,600;  259,450
286,273;  276,080;  302,600;  257,450
286,361;  304,960;  322,600;  287,450
286,449;  290,870;  305,600;  260,450
286,537;  297,130;  300,600;  248,450
286,625;  288,600;  300,600;  275,450
286,713;  276,800;  262,600;  270,450
286,801;  302,210;  320,600;  307,450
286,889;  312,980;  304,600;  282,450
286,976;  284,380;  271,600;  266,450
287,064;  303,040;  297,600;  309,450
287,152;  300,380;  332,600;  299,450
287,240;  304,100;  297,600;  327,450
287,328;  280,150;  249,600;  245,450
287,416;  286,580;  295,600;  277,450
287,504;  291,760;  302,600;  274,450
287,591;  295,040;  317,600;  307,450
287,679;  280,660;  272,600;  275,450
287,767;  294,070;  270,600;  292,450
287,855;  297,660;  271,600;  284,450
287,943;  304,060;  312,600;  269,450
288,030;  285,140;  246,600;  293,450
288,118;  313,020;  325,600;  295,450
288,206;  270,280;  264,600;  290,450
288,294;  298,270;  273,600;  292,450
288,382;  295,830;  301,600;  288,450
288,469;  307,260;  324,600;  274,450
288,557;  287,590;  276,600;  275,450
288,645;  316,920;  321,600;  281,450
288,732;  271,910;  274,600;  276,450
288,820;  298,210;  334,600;  270,450
288,908;  299,990;  295,600;  295,450
288,995;  305,880;  295,600;  277,450
289,083;  288,270;  278,600;  278,450
289,171;  326,150;  328,600;  310,450
289,258;  372,740;  402,600;  311,450
289,346;  428,590;  433,600;  329,450
289,434;  306,030;  345,600;  318,450
289,521;  278,860;  298,600;  281,450
289,609;  316,530;  317,600;  309,450
289,697;  309,560;  310,600;  321,450
289,784;  293,550;  300,600;  284,450
289,872;  304,210;  314,600;  313,450
289,959;  274,500;  274,600;  262,450
290,047;  294,330;  268,600;  272,450
290,134;  268,490;  286,600;  264,450
290,222;  303,500;  317,600;  294,450
290,310;  300,820;  310,600;  280,450
290,397;  326,770;  302,600;  319,450
290,485;  284,510;  291,600;  284,450
290,572;  306,360;  286,600;  318,450
290,660;  298,000;  300,600;  293,450
290,747;  284,330;  292,600;  290,450
290,835;  292,160;  296,600;  321,450
290,922;  295,480;  307,600;  294,450
291,009;  293,510;  310,600;  283,450
291,097;  290,730;  305,600;  282,450
291,184;  323,290;  319,600;  313,450
291,272;  279,590;  297,600;  264,450
291,359;  277,790;  283,600;  283,450
291,447;  298,310;  294,600;  309,450
291,534;  319,630;  310,600;  315,450
291,621;  296,420;  261,600;  308,450
291,709;  277,620;  284,600;  270,450
291,796;  309,210;  313,600;  323,450
291,884;  285,850;  310,600;  308,450
291,971;  311,910;  306,600;  287,450
292,058;  281,570;  250,600;  294,450
292,146;  291,950;  293,600;  279,450
292,233;  280,180;  284,600;  243,450
292,320;  287,830;  294,600;  284,450
292,408;  307,040;  316,600;  297,450
292,495;  296,230;  302,600;  281,450
292,582;  282,100;  276,600;  273,450
292,669;  278,330;  273,600;  285,450
292,757;  273,490;  292,600;  288,450
292,844;  306,230;  305,600;  312,450
292,931;  273,690;  272,600;  266,450
293,018;  289,400;  267,600;  264,450
293,106;  296,940;  290,600;  324,450
293,193;  267,930;  265,600;  280,450
293,280;  291,190;  304,600;  310,450
293,367;  285,650;  279,600;  295,450
293,455;  290,150;  253,600;  248,450
293,542;  273,420;  264,600;  268,450
293,629;  274,040;  264,600;  272,450
293,716;  301,730;  341,600;  307,450
293,803;  280,960;  273,600;  279,450
293,890;  303,660;  284,600;  298,450
293,978;  282,870;  277,600;  266,450
294,065;  278,850;  293,600;  268,450
294,152;  296,680;  276,600;  315,450
294,239;  268,030;  294,600;  269,450
294,326;  279,420;  307,600;  277,450
294,413;  272,220;  280,600;  253,450
294,500;  287,960;  304,600;  286,450
294,587;  281,780;  291,600;  255,450
294,674;  299,550;  280,600;  314,450
294,761;  280,980;  283,600;  266,450
294,848;  280,970;  275,600;  288,450
294,935;  283,820;  281,600;  279,450
295,022;  268,280;  269,600;  243,450
295,109;  255,610;  259,600;  253,450
295,196;  285,920;  297,600;  309,450
295,283;  270,680;  295,600;  256,450
295,370;  307,250;  318,600;  307,450
295,457;  285,000;  266,600;  285,450
295,544;  281,020;  277,600;  264,450
295,631;  285,890;  282,600;  272,450
295,718;  268,590;  279,600;  248,450
295,805;  293,250;  298,600;  281,450
295,892;  298,330;  314,600;  274,450
295,979;  289,660;  294,600;  284,450
296,066;  295,230;  306,600;  278,450
296,153;  292,090;  313,600;  324,450
296,240;  296,720;  312,600;  282,450
296,327;  290,070;  286,600;  257,450
296,413;  310,900;  316,600;  272,450
296,500;  328,070;  330,600;  261,450
296,587;  544,140;  534,600;  268,450
296,674; 1704,570; 1749,600;  263,450
296,761;  765,140;  786,600;  252,450
296,848;  297,840;  299,600;  274,450
296,934;  291,690;  296,600;  274,450
297,021;  289,530;  286,600;  266,450
297,108;  271,790;  310,600;  269,450
297,195;  285,770;  276,600;  268,450
297,282;  283,930;  295,600;  273,450
297,368;  300,370;  297,600;  347,450
297,455;  273,810;  284,600;  259,450
297,542;  303,490;  330,600;  316,450
297,629;  291,760;  315,600;  290,450
297,715;  301,900;  309,600;  306,450
297,802;  294,130;  286,600;  273,450
297,889;  306,080;  307,600;  319,450
297,975;  315,430;  326,600;  320,450
298,062;  310,810;  325,600;  301,450
298,149;  271,310;  300,600;  269,450
298,235;  286,430;  286,600;  308,450
298,322;  285,980;  287,600;  291,450
298,409;  303,980;  340,600;  304,450
298,495;  276,820;  282,600;  250,450
298,582;  304,000;  303,600;  304,450
298,669;  284,980;  290,600;  290,450
298,755;  292,010;  295,600;  281,450
298,842;  296,210;  315,600;  314,450
298,928;  296,680;  298,600;  281,450
299,015;  288,680;  287,600;  296,450
299,102;  315,650;  306,600;  309,450
299,188;  307,910;  307,600;  292,450
299,275;  304,470;  313,600;  289,450
299,361;  271,590;  274,600;  256,450
299,448;  303,650;  283,600;  278,450
299,534;  303,420;  328,600;  282,450
299,621;  297,620;  323,600;  302,450
299,707;  294,290;  298,600;  298,450
299,794;  310,750;  318,600;  322,450
299,880;  313,840;  301,600;  313,450
299,967;  295,070;  285,600;  251,450
300,053;  290,480;  301,600;  301,450
300,140;  320,870;  314,600;  315,450
300,226;  304,560;  320,600;  297,450
300,312;  301,500;  310,600;  306,450
300,399;  296,740;  290,600;  309,450
300,485;  291,830;  310,600;  268,450
300,572;  273,630;  272,600;  257,450
300,658;  289,780;  299,600;  272,450
300,744;  303,500;  310,600;  301,450
300,831;  308,030;  302,600;  292,450
300,917;  313,700;  298,600;  310,450
301,004;  307,590;  299,600;  288,450
301,090;  270,340;  279,600;  254,450
301,176;  278,760;  284,600;  254,450
301,263;  308,190;  322,600;  282,450
301,349;  284,570;  294,600;  273,450
301,435;  278,000;  267,600;  268,450
301,521;  310,540;  323,600;  301,450
301,608;  307,950;  311,600;  319,450
301,694;  294,560;  304,600;  283,450
301,780;  297,190;  296,600;  288,450
301,867;  281,630;  281,600;  274,450
301,953;  299,940;  289,600;  304,450
302,039;  391,600;  409,600;  273,450
302,125;  540,480;  539,600;  281,450
302,211;  352,050;  349,600;  300,450
302,298;  348,200;  374,600;  261,450
302,384;  289,120;  296,600;  238,450
302,470;  290,440;  280,600;  280,450
302,556;  300,370;  331,600;  294,450
302,642;  289,420;  286,600;  226,450
302,729;  295,590;  300,600;  270,450
302,815;  308,550;  299,600;  269,450
302,901;  290,540;  267,600;  294,450
302,987;  305,200;  299,600;  293,450
303,073;  295,790;  284,600;  283,450
303,159;  289,670;  295,600;  305,450
303,245;  281,960;  279,600;  256,450
303,331;  278,610;  281,600;  277,450
303,417;  293,380;  283,600;  328,450
303,503;  302,550;  331,600;  293,450
303,590;  281,950;  289,600;  272,450
303,676;  293,920;  289,600;  302,450
303,762;  280,250;  288,600;  270,450
303,848;  304,270;  295,600;  316,450
303,934;  297,960;  323,600;  286,450
304,020;  296,780;  304,600;  288,450
304,106;  305,900;  318,600;  287,450
304,192;  288,950;  265,600;  275,450
304,278;  296,050;  297,600;  304,450
304,364;  319,420;  327,600;  303,450
304,450;  298,940;  283,600;  288,450
304,535;  294,830;  304,600;  295,450
304,621;  298,180;  302,600;  309,450
304,707;  303,270;  294,600;  296,450
304,793;  312,050;  323,600;  295,450
304,879;  300,360;  305,600;  292,450
304,965;  308,130;  297,600;  273,450
305,051;  301,980;  310,600;  260,450
305,137;  312,270;  266,600;  314,450
305,223;  283,490;  299,600;  301,450
305,309;  305,720;  306,600;  306,450
305,394;  304,660;  266,600;  282,450
305,480;  294,510;  298,600;  266,450
305,566;  300,930;  280,600;  297,450
305,652;  309,370;  297,600;  308,450
305,738;  340,390;  332,600;  315,450
305,824;  307,170;  280,600;  303,450
305,909;  315,560;  338,600;  301,450
305,995;  281,520;  267,600;  268,450
306,081;  339,100;  368,600;  334,450
306,167;  299,020;  287,600;  311,450
306,252;  317,970;  319,600;  311,450
306,338;  329,220;  332,600;  332,450
306,424;  300,450;  315,600;  260,450
306,510;  313,030;  355,600;  305,450
306,595;  315,800;  303,600;  335,450
306,681;  306,570;  321,600;  287,450
306,767;  298,270;  313,600;  286,450
306,852;  325,350;  337,600;  314,450
306,938;  320,520;  291,600;  336,450
307,024;  293,920;  281,600;  321,450
307,109;  329,350;  340,600;  327,450
307,195;  307,830;  318,600;  337,450
307,281;  310,860;  322,600;  315,450
307,366;  305,570;  319,600;  284,450
307,452;  308,320;  292,600;  312,450
307,537;  289,860;  289,600;  281,450
307,623;  286,750;  272,600;  282,450
307,709;  305,830;  302,600;  325,450
307,794;  281,520;  293,600;  258,450
307,880;  315,100;  321,600;  320,450
307,965;  300,300;  278,600;  274,450
308,051;  287,230;  263,600;  305,450
308,136;  290,340;  314,600;  260,450
308,222;  296,590;  306,600;  301,450
308,307;  287,320;  286,600;  312,450
308,393;  293,590;  294,600;  285,450
308,478;  310,670;  321,600;  308,450
308,564;  285,390;  280,600;  276,450
308,649;  295,690;  308,600;  304,450
308,735;  293,680;  320,600;  278,450
308,820;  315,040;  328,600;  304,450
308,906;  289,660;  298,600;  272,450
308,991;  330,150;  339,600;  314,450
309,076;  310,720;  335,600;  290,450
309,162;  272,270;  265,600;  245,450
309,247;  305,250;  297,600;  288,450
309,333;  289,160;  284,600;  286,450
309,418;  294,950;  281,600;  297,450
309,503;  291,530;  301,600;  289,450
309,589;  295,380;  308,600;  306,450
309,674;  284,050;  274,600;  268,450
309,759;  295,860;  291,600;  289,450
309,845;  302,300;  290,600;  312,450
309,930;  303,680;  292,600;  288,450
310,015;  268,410;  257,600;  251,450
310,101;  310,700;  282,600;  296,450
310,186;  280,300;  267,600;  298,450
310,271;  291,100;  298,600;  286,450
310,357;  283,930;  265,600;  286,450
310,442;  296,240;  288,600;  263,450
310,527;  290,770;  288,600;  306,450
310,612;  269,580;  291,600;  253,450
310,698;  311,700;  282,600;  275,450
310,783;  296,320;  288,600;  279,450
310,868;  289,860;  313,600;  263,450
310,953;  276,810;  269,600;  293,450
311,038;  308,320;  289,600;  286,450
311,124;  287,390;  296,600;  277,450
311,209;  271,030;  293,600;  291,450
311,294;  304,150;  306,600;  303,450
311,379;  271,590;  254,600;  258,450
311,464;  296,970;  302,600;  291,450
311,549;  279,090;  277,600;  294,450
311,634;  282,500;  284,600;  275,450
311,719;  313,330;  308,600;  309,450
311,805;  286,940;  308,600;  275,450
311,890;  294,580;  308,600;  261,450
311,975;  287,190;  262,600;  283,450
312,060;  301,250;  321,600;  289,450
312,145;  283,280;  277,600;  262,450
312,230;  304,000;  313,600;  285,450
312,315;  323,110;  325,600;  262,450
312,400;  399,580;  404,600;  303,450
312,485; 1693,000; 1668,600;  292,450
312,570; 1222,870; 1232,600;  239,450
312,655;  340,120;  342,600;  282,450
312,740;  319,070;  312,600;  289,450
312,825;  330,860;  329,600;  301,450
312,910;  349,650;  343,600;  278,450
312,995;  441,400;  443,600;  325,450
313,080; 2128,830; 2082,600;  265,450
313,165; 2156,580; 2149,600;  310,450
313,250;  354,370;  308,600;  276,450
313,335;  322,630;  321,600;  307,450
313,419;  273,450;  269,600;  242,450
313,504;  313,760;  304,600;  286,450
313,589;  299,130;  272,600;  277,450
313,674;  308,360;  303,600;  290,450
313,759;  278,390;  274,600;  273,450
313,844;  295,610;  276,600;  289,450
313,929;  292,020;  295,600;  285,450
314,014;  314,130;  307,600;  320,450
314,098;  295,060;  321,600;  305,450
314,183;  263,770;  258,600;  260,450
314,268;  289,770;  295,600;  290,450
314,353;  305,110;  287,600;  290,450
314,438;  304,370;  287,600;  294,450
314,522;  306,050;  272,600;  306,450
314,607;  299,760;  282,600;  302,450
314,692;  294,980;  291,600;  301,450
314,777;  286,320;  291,600;  279,450
314,861;  273,720;  293,600;  263,450
314,946;  308,400;  321,600;  303,450
315,031;  288,840;  284,600;  267,450
315,115;  300,760;  309,600;  318,450
315,200;  307,410;  301,600;  285,450
315,285;  282,140;  278,600;  275,450
315,369;  280,120;  282,600;  273,450
315,454;  303,770;  291,600;  305,450
315,539;  299,460;  280,600;  283,450
315,623;  303,320;  308,600;  292,450
315,708;  327,870;  326,600;  315,450
315,793;  291,430;  318,600;  308,450
315,877;  296,390;  311,600;  282,450
315,962;  281,300;  263,600;  283,450
316,046;  311,660;  327,600;  298,450
316,131;  328,950;  334,600;  313,450
316,216;  304,680;  308,600;  288,450
316,300;  296,310;  307,600;  281,450
316,385;  316,550;  301,600;  319,450
316,469;  322,240;  335,600;  331,450
316,554;  291,080;  290,600;  288,450
316,638;  293,360;  297,600;  286,450
316,723;  287,730;  285,600;  262,450
316,807;  289,170;  268,600;  273,450
316,892;  283,630;  293,600;  275,450
316,976;  312,590;  298,600;  318,450
317,061;  299,540;  282,600;  309,450
317,145;  318,130;  316,600;  315,450
317,230;  315,910;  309,600;  304,450
317,314;  268,570;  264,600;  259,450
317,398;  305,210;  280,600;  323,450
317,483;  280,530;  312,600;  266,450
317,567;  311,190;  299,600;  317,450
317,652;  278,520;  280,600;  244,450
317,736;  298,900;  277,600;  329,450
317,820;  324,120;  343,600;  287,450
317,905;  301,940;  311,600;  289,450
317,989;  289,250;  303,600;  312,450
318,073;  288,470;  281,600;  280,450
318,158;  278,900;  262,600;  284,450
318,242;  292,550;  297,600;  269,450
318,326;  277,550;  265,600;  260,450
318,411;  287,360;  263,600;  290,450
318,495;  281,380;  274,600;  286,450
318,579;  282,320;  264,600;  266,450
318,664;  271,420;  284,600;  242,450
318,748;  300,140;  290,600;  266,450
318,832;  279,090;  261,600;  263,450
318,916;  267,660;  272,600;  263,450
319,001;  295,170;  287,600;  299,450
319,085;  286,570;  265,600;  265,450
319,169;  285,760;  304,600;  285,450
319,253;  280,370;  270,600;  271,450
319,337;  297,210;  311,600;  265,450
319,422;  306,870;  329,600;  325,450
319,506;  277,160;  282,600;  264,450
319,590;  301,200;  303,600;  320,450
319,674;  289,840;  326,600;  301,450
319,758;  290,670;  277,600;  278,450
319,842;  298,560;  280,600;  290,450
319,926;  288,040;  268,600;  280,450
320,010;  258,690;  267,600;  226,450
320,095;  276,710;  284,600;  274,450
320,179;  273,610;  270,600;  263,450
320,263;  276,650;  259,600;  265,450
320,347;  264,560;  217,600;  260,450
320,431;  267,520;  267,600;  245,450
320,515;  289,370;  297,600;  267,450
320,599;  261,270;  274,600;  263,450
320,683;  299,000;  295,600;  306,450
320,767;  256,890;  246,600;  230,450
320,851;  274,140;  247,600;  282,450
320,935;  307,310;  294,600;  317,450
321,019;  282,890;  258,600;  297,450
321,103;  271,590;  319,600;  295,450
321,187;  267,030;  272,600;  303,450
321,271;  287,860;  299,600;  251,450
321,355;  276,720;  290,600;  264,450
321,439;  293,760;  282,600;  306,450
321,523;  273,180;  285,600;  287,450
321,606;  282,740;  289,600;  301,450
321,690;  281,190;  285,600;  261,450
321,774;  284,490;  284,600;  286,450
321,858;  282,490;  300,600;  283,450
321,942;  288,480;  298,600;  291,450
322,026;  279,460;  296,600;  280,450
322,110;  286,350;  286,600;  264,450
322,194;  288,440;  279,600;  293,450
322,277;  276,380;  287,600;  257,450
322,361;  271,690;  260,600;  265,450
322,445;  281,980;  285,600;  252,450
322,529;  288,450;  298,600;  264,450
322,613;  288,630;  273,600;  262,450
322,696;  262,980;  287,600;  266,450
322,780;  276,540;  303,600;  256,450
322,864;  269,170;  310,600;  288,450
322,948;  288,300;  262,600;  270,450
323,031;  273,730;  268,600;  269,450
323,115;  278,300;  299,600;  257,450
323,199;  288,940;  291,600;  268,450
323,282;  301,680;  284,600;  302,450
323,366;  283,110;  280,600;  307,450
323,450;  273,390;  241,600;  266,450
323,533;  309,040;  309,600;  308,450
323,617;  261,100;  243,600;  238,450
323,701;  279,000;  239,600;  257,450
323,784;  283,140;  305,600;  289,450
323,868;  288,760;  302,600;  285,450
323,952;  287,710;  276,600;  272,450
324,035;  296,430;  295,600;  297,450
324,119;  295,050;  285,600;  262,450
324,202;  283,650;  280,600;  298,450
324,286;  282,490;  236,600;  286,450
324,370;  286,760;  291,600;  274,450
324,453;  292,430;  287,600;  296,450
324,537;  290,470;  280,600;  281,450
324,620;  282,960;  295,600;  303,450
324,704;  264,190;  281,600;  261,450
324,787;  286,710;  295,600;  267,450
324,871;  304,000;  293,600;  314,450
324,954;  306,500;  299,600;  318,450
325,038;  300,810;  299,600;  301,450
325,121;  304,260;  302,600;  316,450
325,205;  283,580;  273,600;  277,450
325,288;  276,340;  280,600;  269,450
325,371;  291,630;  275,600;  285,450
325,455;  308,260;  289,600;  302,450
325,538;  279,440;  292,600;  308,450
325,622;  313,850;  302,600;  306,450
325,705;  289,690;  303,600;  300,450
325,788;  308,260;  297,600;  298,450
325,872;  292,260;  264,600;  279,450
325,955;  316,220;  305,600;  300,450
326,039;  302,470;  290,600;  313,450
326,122;  305,530;  277,600;  288,450
326,205;  304,780;  320,600;  299,450
326,289;  310,150;  313,600;  313,450
326,372;  289,610;  310,600;  288,450
326,455;  318,350;  322,600;  318,450
326,538;  309,890;  312,600;  306,450
326,622;  307,490;  285,600;  313,450
326,705;  278,790;  272,600;  290,450
326,788;  316,240;  288,600;  324,450
326,871;  311,330;  286,600;  281,450
326,955;  306,710;  293,600;  333,450
327,038;  298,730;  304,600;  284,450
327,121;  296,480;  313,600;  303,450
327,204;  309,260;  315,600;  298,450
327,288;  323,970;  326,600;  328,450
327,371;  286,030;  286,600;  294,450
327,454;  307,990;  303,600;  316,450
327,537;  291,600;  272,600;  285,450
327,620;  323,770;  327,600;  309,450
327,703;  303,740;  308,600;  314,450
327,786;  301,820;  320,600;  319,450
327,870;  317,980;  321,600;  308,450
327,953;  295,620;  307,600;  296,450
328,036;  293,850;  291,600;  264,450
328,119;  313,730;  345,600;  299,450
328,202;  298,650;  305,600;  287,450
328,285;  319,840;  336,600;  306,450
328,368;  312,530;  335,600;  328,450
328,451;  313,590;  325,600;  334,450
328,534;  298,030;  292,600;  283,450
328,617;  301,520;  290,600;  281,450
328,700;  321,010;  325,600;  327,450
328,783;  316,130;  319,600;  292,450
328,866;  309,040;  294,600;  287,450
328,949;  318,500;  341,600;  325,450
329,032;  291,500;  292,600;  308,450
329,115;  286,450;  288,600;  279,450
329,198;  277,060;  265,600;  282,450
329,281;  292,640;  310,600;  277,450
329,364;  308,300;  300,600;  330,450
329,447;  300,050;  303,600;  300,450
329,530;  322,640;  321,600;  317,450
329,613;  298,130;  302,600;  289,450
329,696;  322,100;  308,600;  298,450
329,778;  308,490;  313,600;  293,450
329,861;  293,340;  309,600;  288,450
329,944;  320,480;  326,600;  272,450
330,027;  305,080;  312,600;  296,450
330,110;  302,180;  305,600;  313,450
330,193;  286,510;  284,600;  300,450
330,275;  310,490;  290,600;  298,450
330,358;  292,420;  278,600;  298,450
330,441;  318,660;  307,600;  326,450
330,524;  301,830;  322,600;  298,450
330,607;  300,170;  281,600;  304,450
330,689;  304,910;  278,600;  321,450
330,772;  305,140;  290,600;  305,450
330,855;  320,440;  329,600;  287,450
330,938;  314,060;  332,600;  319,450
331,020;  311,750;  298,600;  292,450
331,103;  291,430;  280,600;  310,450
331,186;  297,720;  298,600;  286,450
331,268;  287,700;  280,600;  269,450
331,351;  312,250;  285,600;  311,450
331,434;  307,240;  296,600;  316,450
331,516;  308,760;  313,600;  329,450
331,599;  295,540;  266,600;  255,450
331,682;  306,800;  301,600;  302,450
331,764;  287,790;  308,600;  261,450
331,847;  309,540;  311,600;  310,450
331,929;  282,870;  286,600;  278,450
332,012;  307,960;  296,600;  295,450
332,095;  316,980;  348,600;  317,450
332,177;  314,970;  353,600;  324,450
332,260;  319,080;  349,600;  345,450
332,342;  305,230;  310,600;  291,450
332,425;  304,260;  301,600;  293,450
332,507;  302,000;  239,600;  316,450
332,590;  281,660;  274,600;  280,450
332,672;  288,360;  310,600;  264,450
332,755;  298,340;  320,600;  233,450
332,837;  303,020;  286,600;  274,450
332,920;  307,000;  315,600;  298,450
333,002;  319,530;  308,600;  306,450
333,085;  304,960;  308,600;  298,450
333,167;  291,590;  275,600;  266,450
333,249;  290,390;  276,600;  277,450
333,332;  288,870;  275,600;  279,450
333,414;  295,760;  317,600;  295,450
333,497;  298,690;  315,600;  305,450
333,579;  299,180;  303,600;  307,450
333,661;  317,430;  319,600;  286,450
333,744;  288,420;  265,600;  243,450
333,826;  306,260;  302,600;  293,450
333,908;  312,810;  329,600;  332,450
333,991;  297,330;  253,600;  285,450
334,073;  467,750;  503,600;  321,450
334,155;  345,660;  360,600;  289,450
334,238;  315,320;  314,600;  286,450
334,320;  295,590;  296,600;  270,450
334,402;  298,720;  298,600;  292,450
334,485;  297,430;  305,600;  282,450
334,567;  293,650;  301,600;  262,450
334,649;  273,970;  266,600;  273,450
334,731;  306,450;  287,600;  285,450
334,813;  307,080;  346,600;  352,450
334,896;  280,610;  296,600;  287,450
334,978;  298,900;  302,600;  283,450
335,060;  301,950;  306,600;  296,450
335,142;  293,380;  265,600;  306,450
335,224;  305,420;  308,600;  310,450
335,307;  292,830;  277,600;  275,450
335,389;  310,100;  302,600;  315,450
335,471;  296,260;  300,600;  282,450
335,553;  312,660;  308,600;  317,450
335,635;  306,110;  303,600;  277,450
335,717;  294,770;  280,600;  305,450
335,799;  314,720;  314,600;  325,450
335,881;  271,500;  271,600;  251,450
335,963;  285,120;  283,600;  278,450
336,045;  288,380;  281,600;  276,450
336,128;  270,390;  281,600;  268,450
336,210;  285,550;  284,600;  250,450
336,292;  289,980;  301,600;  283,450
336,374;  296,790;  307,600;  287,450
336,456;  278,840;  290,600;  258,450
336,538;  298,370;  288,600;  304,450
336,620;  306,640;  325,600;  305,450
336,702;  286,350;  308,600;  309,450
336,783;  298,800;  299,600;  289,450
336,865;  299,700;  302,600;  303,450
336,947;  302,620;  299,600;  302,450
337,029;  276,550;  252,600;  262,450
337,111;  311,350;  309,600;  328,450
337,193;  276,230;  257,600;  250,450
337,275;  308,030;  302,600;  291,450
337,357;  313,140;  299,600;  305,450
337,439;  298,640;  299,600;  277,450
337,521;  270,860;  274,600;  268,450
337,602;  293,690;  280,600;  295,450
337,684;  311,360;  302,600;  341,450
337,766;  302,820;  301,600;  288,450
337,848;  292,770;  309,600;  318,450
337,930;  294,300;  300,600;  300,450
338,012;  292,800;  257,600;  295,450
338,093;  308,090;  302,600;  312,450
338,175;  313,810;  308,600;  308,450
338,257;  300,520;  296,600;  243,450
338,339;  293,680;  303,600;  248,450
338,420;  304,160;  304,600;  329,450
338,502;  291,780;  292,600;  292,450
338,584;  281,340;  261,600;  270,450
338,666;  295,690;  293,600;  301,450
338,747;  326,600;  337,600;  324,450
338,829;  303,060;  301,600;  300,450
338,911;  289,200;  281,600;  284,450
338,992;  285,580;  292,600;  299,450
339,074;  299,390;  300,600;  274,450
339,156;  291,740;  308,600;  302,450
339,237;  323,220;  344,600;  320,450
339,319;  290,140;  298,600;  284,450
339,400;  303,500;  301,600;  313,450
339,482;  270,790;  291,600;  259,450
339,564;  309,630;  337,600;  315,450
339,645;  300,050;  283,600;  306,450
339,727;  286,050;  284,600;  278,450
339,808;  315,750;  306,600;  320,450
339,890;  294,490;  285,600;  277,450
339,971;  305,560;  318,600;  299,450
340,053;  332,850;  327,600;  339,450
340,134;  287,900;  287,600;  283,450
340,216;  306,800;  294,600;  302,450
340,297;  294,770;  330,600;  312,450
340,379;  305,890;  344,600;  301,450
340,460;  299,660;  275,600;  299,450
340,542;  288,230;  307,600;  263,450
340,623;  303,410;  306,600;  325,450
340,705;  286,440;  306,600;  262,450
340,786;  279,710;  299,600;  288,450
340,868;  298,300;  299,600;  313,450
340,949;  275,590;  279,600;  269,450
341,030;  318,350;  330,600;  312,450
341,112;  273,660;  256,600;  269,450
341,193;  267,610;  287,600;  248,450
341,274;  315,180;  325,600;  312,450
341,356;  314,640;  329,600;  300,450
341,437;  292,720;  292,600;  284,450
341,518;  301,390;  313,600;  322,450
341,600;  314,810;  321,600;  324,450
341,681;  321,210;  316,600;  308,450
341,762;  320,080;  316,600;  314,450
341,844;  279,590;  271,600;  280,450
341,925;  300,800;  304,600;  329,450
342,006;  312,510;  314,600;  322,450
342,087;  285,630;  291,600;  308,450
342,169;  300,300;  301,600;  297,450
342,250;  278,250;  303,600;  250,450
342,331;  287,470;  291,600;  268,450
342,412;  302,930;  304,600;  283,450
342,493;  279,150;  279,600;  266,450
342,575;  316,950;  298,600;  308,450
342,656;  311,420;  343,600;  319,450
342,737;  323,720;  331,600;  316,450
342,818;  299,290;  319,600;  291,450
342,899;  307,210;  309,600;  295,450
342,980;  299,850;  306,600;  302,450
343,061;  295,040;  297,600;  279,450
343,143;  314,910;  299,600;  310,450
343,224;  299,700;  297,600;  287,450
343,305;  294,700;  294,600;  273,450
343,386;  293,540;  290,600;  295,450
343,467;  297,060;  306,600;  295,450
343,548;  295,840;  307,600;  271,450
343,629;  309,770;  348,600;  311,450
343,710;  314,360;  354,600;  330,450
343,791;  319,240;  296,600;  295,450
343,872;  293,070;  314,600;  271,450
343,953;  308,490;  323,600;  303,450
344,034;  313,790;  307,600;  307,450
344,115;  297,150;  298,600;  295,450
344,196;  291,000;  295,600;  273,450
344,277;  290,270;  282,600;  299,450
344,358;  299,730;  279,600;  295,450
344,439;  290,020;  281,600;  287,450
344,520;  289,100;  310,600;  269,450
344,601;  307,250;  319,600;  332,450
344,681;  296,880;  312,600;  315,450
344,762;  279,680;  275,600;  257,450
344,843;  276,640;  300,600;  255,450
344,924;  306,110;  252,600;  290,450
345,005;  282,740;  269,600;  286,450
345,086;  299,910;  301,600;  289,450
345,167;  285,940;  299,600;  282,450
345,247;  317,470;  305,600;  327,450
345,328;  313,770;  287,600;  317,450
345,409;  300,120;  280,600;  307,450
345,490;  306,750;  314,600;  310,450
345,571;  301,750;  293,600;  295,450
345,651;  274,590;  260,600;  335,450
345,732;  300,400;  303,600;  286,450
345,813;  308,300;  285,600;  291,450
345,894;  275,270;  254,600;  279,450
345,974;  301,560;  346,600;  305,450
346,055;  287,190;  275,600;  291,450
346,136;  300,830;  311,600;  287,450
346,216;  321,350;  312,600;  345,450
346,297;  299,640;  294,600;  289,450
346,378;  288,670;  270,600;  300,450
346,458;  303,270;  299,600;  271,450
346,539;  295,570;  295,600;  315,450
346,620;  298,000;  301,600;  312,450
346,700;  279,480;  302,600;  258,450
346,781;  278,650;  252,600;  260,450
346,861;  298,060;  283,600;  301,450
346,942;  295,260;  273,600;  319,450
347,023;  310,860;  302,600;  306,450
347,103;  287,970;  296,600;  287,450
347,184;  287,270;  321,600;  294,450
347,264;  286,590;  289,600;  310,450
347,345;  282,870;  280,600;  281,450
347,425;  282,600;  270,600;  295,450
347,506;  278,440;  283,600;  283,450
347,586;  286,580;  258,600;  283,450
347,667;  302,050;  316,600;  299,450
347,747;  302,890;  307,600;  304,450
347,828;  288,760;  308,600;  271,450
347,908;  301,410;  307,600;  307,450
347,988;  294,080;  296,600;  251,450
348,069;  306,920;  295,600;  305,450
348,149;  299,810;  303,600;  276,450
348,230;  304,590;  297,600;  301,450
348,310;  280,880;  291,600;  301,450
348,390;  278,980;  285,600;  267,450
348,471;  299,820;  299,600;  270,450
348,551;  283,750;  289,600;  264,450
348,632;  282,930;  288,600;  278,450
348,712;  284,830;  281,600;  278,450
348,792;  326,700;  352,600;  333,450
348,873;  278,820;  293,600;  249,450
348,953;  284,420;  278,600;  330,450
349,033;  292,200;  285,600;  311,450
349,113;  276,950;  278,600;  277,450
349,194;  294,740;  289,600;  310,450
349,274;  297,500;  300,600;  310,450
349,354;  297,140;  288,600;  285,450
349,434;  296,700;  300,600;  299,450
349,515;  312,820;  310,600;  320,450
349,595;  296,170;  308,600;  287,450
349,675;  304,870;  289,600;  299,450
349,755;  294,500;  325,600;  280,450
349,835;  299,890;  305,600;  309,450
349,916;  292,890;  298,600;  284,450
349,996;  285,100;  287,600;  253,450
350,076;  304,370;  286,600;  315,450
350,156;  281,600;  272,600;  280,450
350,236;  304,100;  292,600;  316,450
350,316;  286,360;  296,600;  282,450
350,396;  302,080;  283,600;  306,450
350,476;  297,140;  308,600;  275,450
350,556;  291,980;  275,600;  290,450
350,637;  317,440;  331,600;  312,450
350,717;  286,560;  269,600;  287,450
350,797;  297,970;  307,600;  305,450
350,877;  283,480;  305,600;  323,450
350,957;  291,030;  285,600;  291,450
351,037;  298,810;  303,600;  298,450
351,117;  292,700;  304,600;  275,450
351,197;  298,470;  331,600;  302,450
351,277;  292,070;  328,600;  277,450
351,357;  307,040;  322,600;  293,450
351,437;  302,180;  299,600;  283,450
351,516;  314,350;  337,600;  283,450
351,596;  289,470;  291,600;  329,450
351,676;  282,370;  269,600;  284,450
351,756;  326,610;  308,600;  326,450
351,836;  309,870;  285,600;  329,450
351,916;  295,620;  324,600;  287,450
351,996;  297,070;  313,600;  318,450
352,076;  298,180;  288,600;  302,450
352,156;  315,270;  317,600;  297,450
352,235;  295,370;  310,600;  304,450
352,315;  304,670;  313,600;  339,450
352,395;  305,350;  306,600;  277,450
352,475;  311,130;  339,600;  287,450
352,555;  324,240;  362,600;  344,450
352,634;  315,310;  304,600;  344,450
352,714;  299,360;  310,600;  263,450
352,794;  351,190;  334,600;  364,450
352,874;  310,970;  335,600;  339,450
352,953;  333,290;  336,600;  318,450
353,033;  320,950;  317,600;  344,450
353,113;  328,390;  360,600;  341,450
353,193;  320,080;  314,600;  334,450
353,272;  325,530;  295,600;  329,450
353,352;  307,780;  303,600;  275,450
353,432;  342,940;  324,600;  344,450
353,511;  324,810;  323,600;  302,450
353,591;  354,810;  352,600;  347,450
353,671;  329,620;  335,600;  320,450
353,750;  329,430;  311,600;  311,450
353,830;  309,860;  319,600;  296,450
353,909;  337,640;  335,600;  341,450
353,989;  313,650;  309,600;  297,450
354,069;  314,220;  315,600;  318,450
354,148;  334,830;  341,600;  323,450
354,228;  307,090;  315,600;  300,450
354,307;  324,820;  313,600;  312,450
354,387;  315,370;  316,600;  326,450
354,466;  310,540;  319,600;  299,450
354,546;  332,820;  314,600;  347,450
354,625;  310,970;  341,600;  324,450
354,705;  314,440;  272,600;  330,450
354,784;  312,450;  301,600;  303,450
354,864;  311,010;  309,600;  305,450
354,943;  333,240;  340,600;  339,450
355,023;  304,630;  288,600;  314,450
355,102;  357,800;  337,600;  333,450
355,181;  312,310;  328,600;  329,450
355,261;  332,130;  314,600;  344,450
355,340;  299,260;  301,600;  307,450
355,420;  336,630;  325,600;  327,450
355,499;  319,390;  294,600;  326,450
355,578;  312,320;  321,600;  324,450
355,658;  328,610;  310,600;  346,450
355,737;  319,150;  312,600;  309,450
355,816;  320,390;  330,600;  333,450
355,896;  313,080;  300,600;  301,450
355,975;  302,310;  308,600;  294,450
356,054;  302,970;  316,600;  285,450
356,133;  286,930;  287,600;  314,450
356,213;  317,980;  318,600;  292,450
356,292;  299,410;  297,600;  276,450
356,371;  307,230;  331,600;  297,450
356,451;  322,350;  345,600;  294,450
356,530;  348,680;  357,600;  319,450
356,609;  310,910;  306,600;  286,450
356,688;  312,050;  314,600;  298,450
356,767;  299,250;  299,600;  290,450
356,846;  325,300;  346,600;  295,450
356,926;  336,360;  342,600;  361,450
357,005;  314,150;  332,600;  321,450
357,084;  296,550;  318,600;  321,450
357,163;  316,590;  335,600;  341,450
357,242;  312,870;  286,600;  337,450
357,321;  308,330;  322,600;  296,450
357,400;  313,650;  305,600;  310,450
357,479;  311,170;  336,600;  292,450
357,559;  318,520;  325,600;  314,450
357,638;  294,920;  312,600;  292,450
357,717;  309,170;  322,600;  304,450
357,796;  327,030;  348,600;  323,450
357,875;  308,580;  333,600;  316,450
357,954;  308,980;  312,600;  285,450
358,033;  312,470;  311,600;  278,450
358,112;  321,430;  302,600;  300,450
358,191;  306,040;  313,600;  289,450
358,270;  292,840;  266,600;  300,450
358,349;  314,330;  291,600;  324,450
358,428;  318,730;  321,600;  335,450
358,507;  321,360;  348,600;  306,450
358,585;  314,200;  318,600;  326,450
358,664;  324,500;  318,600;  340,450
358,743;  319,670;  293,600;  304,450
358,822;  325,800;  354,600;  329,450
358,901;  301,780;  275,600;  303,450
358,980;  306,870;  308,600;  299,450
359,059;  324,170;  326,600;  326,450
359,138;  325,610;  308,600;  324,450
359,216;  318,510;  320,600;  314,450
359,295;  300,460;  325,600;  329,450
359,374;  326,620;  335,600;  301,450
359,453;  313,950;  340,600;  315,450
359,532;  299,820;  307,600;  310,450
359,610;  313,510;  315,600;  307,450
359,689;  329,520;  324,600;  330,450
359,768;  309,830;  305,600;  294,450
359,847;  297,340;  313,600;  287,450
359,925;  298,150;  303,600;  315,450
360,004;  299,140;  295,600;  289,450
360,083;  315,930;  299,600;  319,450
360,161;  304,180;  314,600;  285,450
360,240;  286,830;  272,600;  289,450
360,319;  309,260;  323,600;  309,450
360,397;  324,180;  313,600;  320,450
360,476;  315,080;  291,600;  325,450
360,555;  342,670;  334,600;  340,450
360,633;  300,010;  287,600;  300,450
360,712;  304,730;  299,600;  264,450
360,790;  326,060;  314,600;  320,450
360,869;  309,860;  297,600;  296,450
360,948;  319,210;  278,600;  334,450
361,026;  293,480;  321,600;  276,450
361,105;  308,320;  305,600;  290,450
361,183;  317,010;  294,600;  286,450
361,262;  297,770;  300,600;  280,450
361,340;  304,580;  318,600;  297,450
361,419;  285,780;  282,600;  250,450
361,497;  337,580;  300,600;  335,450
361,576;  311,340;  292,600;  315,450
361,654;  340,600;  361,600;  322,450
361,733;  291,080;  320,600;  300,450
361,811;  322,860;  320,600;  311,450
361,890;  290,980;  267,600;  289,450
361,968;  309,460;  269,600;  303,450
362,046;  331,400;  334,600;  321,450
362,125;  336,470;  353,600;  326,450
362,203;  312,360;  297,600;  287,450
362,282;  325,620;  319,600;  338,450
362,360;  312,740;  296,600;  307,450
362,438;  312,520;  310,600;  302,450
362,517;  355,280;  346,600;  347,450
362,595;  337,820;  312,600;  351,450
362,673;  331,590;  323,600;  317,450
362,752;  323,410;  349,600;  327,450
362,830;  335,710;  338,600;  349,450
362,908;  319,470;  310,600;  307,450
362,986;  331,800;  335,600;  315,450
363,065;  326,510;  313,600;  344,450
363,143;  356,320;  354,600;  367,450
363,221;  312,960;  302,600;  288,450
363,299;  309,310;  304,600;  309,450
363,378;  323,470;  297,600;  335,450
363,456;  300,470;  286,600;  316,450
363,534;  325,650;  318,600;  323,450
363,612;  326,730;  320,600;  312,450
363,690;  339,090;  319,600;  344,450
363,769;  350,370;  340,600;  345,450
363,847;  330,260;  308,600;  356,450
363,925;  304,090;  282,600;  303,450
364,003;  353,730;  343,600;  348,450
364,081;  336,760;  323,600;  338,450
364,159;  334,090;  325,600;  330,450
364,237;  343,990;  351,600;  326,450
364,315;  321,170;  306,600;  311,450
364,393;  360,100;  363,600;  340,450
364,471;  338,340;  345,600;  315,450
364,549;  352,840;  344,600;  337,450
364,627;  351,150;  339,600;  321,450
364,705;  357,620;  344,600;  299,450
364,783;  424,990;  417,600;  294,450
364,861; 1015,940; 1050,600;  311,450
364,939; 3601,690; 3619,600;  304,450
365,017;  779,250;  723,600;  298,450
365,095;  368,420;  341,600;  327,450
365,173;  376,180;  398,600;  335,450
365,251;  381,030;  356,600;  345,450
365,329;  526,050;  527,600;  344,450
365,407; 1180,710; 1155,600;  315,450
365,485;  460,310;  464,600;  377,450
365,563;  354,360;  354,600;  339,450
365,641;  332,950;  327,600;  316,450
365,719;  338,090;  361,600;  314,450
365,796;  337,170;  329,600;  309,450
365,874;  350,370;  329,600;  354,450
365,952;  316,670;  334,600;  297,450
366,030;  341,780;  311,600;  318,450
366,108;  358,560;  336,600;  325,450
366,185;  623,100;  644,600;  330,450
366,263;  891,740;  880,600;  333,450
366,341;  374,700;  362,600;  310,450
366,419;  337,250;  335,600;  319,450
366,496;  345,580;  347,600;  336,450
366,574;  329,920;  299,600;  321,450
366,652;  347,360;  381,600;  324,450
366,730;  364,950;  336,600;  375,450
366,807;  330,630;  317,600;  335,450
366,885;  326,460;  315,600;  340,450
366,963;  326,650;  305,600;  332,450
367,040;  349,160;  348,600;  348,450
367,118;  323,580;  315,600;  299,450
367,196;  340,410;  322,600;  355,450
367,273;  332,240;  331,600;  352,450
367,351;  324,930;  314,600;  320,450
367,428;  355,490;  351,600;  360,450
367,506;  331,100;  361,600;  305,450
367,584;  359,230;  352,600;  377,450
367,661;  337,650;  329,600;  332,450
367,739;  330,080;  328,600;  328,450
367,816;  320,920;  343,600;  292,450
367,894;  338,320;  368,600;  312,450
367,971;  334,310;  309,600;  328,450
368,049;  347,390;  376,600;  316,450
368,126;  315,040;  329,600;  318,450
368,204;  349,410;  333,600;  342,450
368,281;  348,330;  375,600;  360,450
368,359;  348,220;  352,600;  332,450
368,436;  343,700;  349,600;  336,450
368,514;  344,580;  344,600;  337,450
368,591;  343,110;  344,600;  347,450
368,668;  343,930;  375,600;  336,450
368,746;  356,200;  387,600;  352,450
368,823;  339,050;  338,600;  380,450
368,901;  337,230;  325,600;  328,450
368,978;  356,310;  329,600;  311,450
369,055;  339,600;  339,600;  332,450
369,133;  363,110;  371,600;  352,450
369,210;  334,410;  328,600;  366,450
369,287;  364,230;  364,600;  366,450
369,365;  366,410;  380,600;  367,450
369,442;  346,250;  347,600;  350,450
369,519;  303,560;  321,600;  298,450
369,596;  365,100;  359,600;  339,450
369,674;  335,160;  327,600;  283,450
369,751;  364,120;  337,600;  371,450
369,828;  348,310;  351,600;  337,450
369,905;  351,290;  358,600;  377,450
369,983;  328,210;  305,600;  327,450
370,060;  328,590;  323,600;  301,450
370,137;  367,500;  394,600;  401,450
370,214;  337,380;  321,600;  374,450
370,291;  347,600;  350,600;  340,450
370,368;  344,740;  356,600;  383,450
370,446;  334,790;  301,600;  350,450
370,523;  328,150;  360,600;  316,450
370,600;  350,310;  368,600;  319,450
370,677;  347,720;  348,600;  332,450
370,754;  338,880;  343,600;  331,450
370,831;  334,910;  352,600;  343,450
370,908;  371,870;  347,600;  374,450
370,985;  322,960;  333,600;  281,450
371,062;  344,890;  341,600;  344,450
371,139;  356,710;  361,600;  363,450
371,216;  355,760;  351,600;  347,450
371,293;  348,680;  329,600;  359,450
371,370;  326,760;  322,600;  314,450
371,447;  349,950;  346,600;  342,450
371,524;  371,380;  346,600;  357,450
371,601;  368,060;  371,600;  341,450
371,678;  371,240;  350,600;  355,450
371,755;  346,150;  366,600;  335,450
371,832;  367,780;  370,600;  375,450
371,909;  337,720;  370,600;  318,450
371,986;  376,980;  371,600;  394,450
372,063;  343,190;  324,600;  329,450
372,140;  353,860;  342,600;  359,450
372,216;  356,640;  356,600;  331,450
372,293;  339,240;  310,600;  347,450
372,370;  369,100;  375,600;  357,450
372,447;  354,240;  329,600;  372,450
372,524;  345,530;  350,600;  371,450
372,601;  351,160;  369,600;  321,450
372,677;  335,430;  344,600;  333,450
372,754;  344,110;  355,600;  360,450
372,831;  352,690;  356,600;  354,450
372,908;  362,910;  380,600;  385,450
372,984;  349,820;  362,600;  356,450
373,061;  336,740;  317,600;  334,450
373,138;  346,840;  367,600;  366,450
373,215;  339,990;  329,600;  317,450
373,291;  345,810;  347,600;  356,450
373,368;  347,760;  378,600;  362,450
373,445;  348,240;  374,600;  345,450
373,521;  345,510;  355,600;  341,450
373,598;  337,250;  354,600;  314,450
373,675;  328,960;  335,600;  358,450
373,751;  345,340;  336,600;  357,450
373,828;  340,030;  338,600;  346,450
373,904;  386,770;  409,600;  394,450
373,981;  329,420;  340,600;  337,450
374,057;  347,030;  343,600;  341,450
374,134;  327,710;  339,600;  316,450
374,211;  346,640;  330,600;  339,450
374,287;  332,810;  336,600;  339,450
374,364;  359,480;  379,600;  370,450
374,440;  316,290;  279,600;  284,450
374,517;  362,020;  367,600;  360,450
374,593;  320,530;  326,600;  299,450
374,670;  337,880;  335,600;  311,450
374,746;  343,560;  347,600;  339,450
374,823;  366,660;  389,600;  364,450
374,899;  363,220;  353,600;  394,450
374,975;  333,540;  336,600;  333,450
375,052;  320,570;  327,600;  327,450
375,128;  322,740;  281,600;  339,450
375,205;  352,390;  346,600;  378,450
375,281;  329,700;  294,600;  331,450
375,357;  361,770;  371,600;  352,450
375,434;  331,120;  313,600;  355,450
375,510;  345,110;  354,600;  323,450
375,586;  344,440;  356,600;  351,450
375,663;  317,370;  314,600;  307,450
375,739;  350,430;  355,600;  380,450
375,815;  343,530;  340,600;  317,450
375,892;  344,430;  340,600;  341,450
375,968;  331,570;  313,600;  325,450
376,044;  335,380;  370,600;  333,450
376,120;  330,720;  311,600;  364,450
376,197;  349,820;  361,600;  328,450
376,273;  333,820;  347,600;  334,450
376,349;  372,680;  386,600;  368,450
376,425;  359,170;  378,600;  336,450
376,501;  342,020;  329,600;  348,450
376,578;  355,090;  332,600;  426,450
376,654;  376,650;  393,600;  365,450
376,730;  358,800;  340,600;  352,450
376,806;  370,550;  346,600;  382,450
376,882;  368,460;  376,600;  332,450
376,958;  375,060;  367,600;  347,450
377,034;  315,780;  320,600;  296,450
377,111;  364,540;  393,600;  358,450
377,187;  385,640;  410,600;  383,450
377,263;  381,860;  397,600;  372,450
377,339;  342,740;  341,600;  319,450
377,415;  358,610;  339,600;  356,450
377,491;  342,460;  362,600;  325,450
377,567;  356,890;  340,600;  369,450
377,643;  373,530;  376,600;  362,450
377,719;  363,160;  368,600;  351,450
377,795;  343,140;  313,600;  350,450
377,871;  364,440;  366,600;  386,450
377,947;  344,670;  343,600;  352,450
378,023;  342,930;  355,600;  339,450
378,099;  346,180;  325,600;  367,450
378,174;  368,930;  364,600;  365,450
378,250;  364,320;  372,600;  389,450
378,326;  369,010;  369,600;  382,450
378,402;  356,950;  359,600;  343,450
378,478;  359,410;  340,600;  355,450
378,554;  368,040;  347,600;  374,450
378,630;  359,410;  369,600;  336,450
378,706;  355,620;  364,600;  321,450
378,781;  389,730;  387,600;  385,450
378,857;  360,370;  359,600;  347,450
378,933;  359,510;  359,600;  335,450
379,009;  347,130;  346,600;  342,450
379,085;  390,220;  419,600;  384,450
379,160;  374,290;  381,600;  366,450
379,236;  371,340;  359,600;  361,450
379,312;  361,610;  337,600;  365,450
379,387;  352,230;  372,600;  349,450
379,463;  357,380;  355,600;  344,450
379,539;  367,540;  408,600;  387,450
379,615;  351,360;  337,600;  364,450
379,690;  396,100;  420,600;  410,450
379,766;  373,530;  389,600;  370,450
379,842;  382,970;  385,600;  366,450
379,917;  379,700;  389,600;  369,450
379,993;  365,940;  370,600;  358,450
380,068;  357,150;  341,600;  349,450
380,144;  378,800;  398,600;  393,450
380,220;  379,840;  388,600;  391,450
380,295;  348,050;  356,600;  356,450
380,371;  358,220;  358,600;  361,450
380,446;  375,660;  418,600;  376,450
380,522;  341,770;  340,600;  360,450
380,597;  355,620;  377,600;  349,450
380,673;  390,550;  395,600;  384,450
380,748;  351,540;  338,600;  344,450
380,824;  362,130;  364,600;  362,450
380,899;  385,300;  371,600;  364,450
380,975;  361,760;  388,600;  402,450
381,050;  346,690;  363,600;  336,450
381,126;  368,230;  370,600;  362,450
381,201;  398,120;  407,600;  405,450
381,277;  371,280;  367,600;  390,450
381,352;  383,450;  389,600;  377,450
381,427;  368,420;  359,600;  370,450
381,503;  380,420;  394,600;  377,450
381,578;  357,950;  363,600;  360,450
381,653;  365,600;  381,600;  387,450
381,729;  358,510;  346,600;  360,450
381,804;  367,010;  373,600;  375,450
381,879;  378,490;  380,600;  366,450
381,955;  354,970;  343,600;  346,450
382,030;  351,810;  346,600;  339,450
382,105;  372,230;  372,600;  372,450
382,181;  368,090;  382,600;  367,450
382,256;  372,830;  373,600;  383,450
382,331;  369,380;  371,600;  375,450
382,406;  347,080;  368,600;  343,450
382,482;  359,860;  371,600;  380,450
382,557;  359,040;  362,600;  335,450
382,632;  369,350;  364,600;  365,450
382,707;  359,670;  393,600;  349,450
382,782;  363,320;  395,600;  385,450
382,857;  355,450;  373,600;  356,450
382,933;  348,140;  354,600;  349,450
383,008;  339,190;  325,600;  336,450
383,083;  376,530;  382,600;  360,450
383,158;  374,230;  375,600;  368,450
383,233;  360,250;  368,600;  362,450
383,308;  357,750;  360,600;  326,450
383,383;  384,800;  394,600;  390,450
383,458;  357,250;  344,600;  340,450
383,533;  341,260;  331,600;  334,450
383,608;  389,650;  367,600;  381,450
383,683;  382,670;  381,600;  367,450
383,758;  378,470;  398,600;  353,450
383,833;  369,930;  343,600;  350,450
383,908;  338,250;  321,600;  367,450
383,983;  345,380;  365,600;  328,450
384,058;  354,180;  340,600;  383,450
384,133;  365,800;  372,600;  376,450
384,208;  373,650;  395,600;  375,450
384,283;  345,520;  362,600;  321,450
384,358;  380,780;  392,600;  390,450
384,433;  359,290;  347,600;  341,450
384,508;  366,730;  339,600;  338,450
384,583;  367,140;  337,600;  355,450
384,658;  365,420;  352,600;  366,450
384,732;  335,430;  329,600;  319,450
384,807;  362,600;  347,600;  366,450
384,882;  368,630;  391,600;  349,450
384,957;  366,650;  348,600;  345,450
385,032;  372,420;  383,600;  373,450
385,106;  368,290;  342,600;  369,450
385,181;  352,940;  353,600;  359,450
385,256;  360,500;  367,600;  336,450
385,331;  371,410;  375,600;  364,450
385,405;  376,280;  383,600;  400,450
385,480;  365,350;  362,600;  372,450
385,555;  397,910;  402,600;  399,450
385,630;  387,980;  369,600;  370,450
385,704;  372,500;  353,600;  390,450
385,779;  363,920;  363,600;  368,450
385,854;  370,100;  364,600;  380,450
385,928;  358,390;  348,600;  365,450
386,003;  398,950;  390,600;  397,450
386,078;  369,130;  374,600;  369,450
386,152;  398,020;  391,600;  412,450
386,227;  357,210;  347,600;  354,450
386,301;  374,800;  389,600;  348,450
386,376;  349,810;  352,600;  346,450
386,450;  376,210;  356,600;  374,450
386,525;  374,780;  357,600;  376,450
386,600;  386,110;  367,600;  381,450
386,674;  363,630;  374,600;  364,450
386,749;  373,810;  395,600;  359,450
386,823;  376,240;  363,600;  377,450
386,898;  379,170;  386,600;  374,450
386,972;  381,850;  383,600;  354,450
387,047;  369,730;  368,600;  364,450
387,121;  376,720;  375,600;  363,450
387,195;  352,990;  359,600;  352,450
387,270;  381,790;  384,600;  385,450
387,344;  399,140;  429,600;  393,450
387,419;  387,720;  367,600;  412,450
387,493;  375,270;  371,600;  377,450
387,567;  350,820;  351,600;  336,450
387,642;  405,240;  383,600;  402,450
387,716;  370,020;  368,600;  378,450
387,790;  367,660;  337,600;  366,450
387,865;  370,110;  351,600;  364,450
387,939;  399,320;  405,600;  406,450
388,013;  381,120;  377,600;  417,450
388,088;  368,230;  361,600;  363,450
388,162;  367,810;  366,600;  355,450
388,236;  370,990;  381,600;  416,450
388,310;  361,290;  368,600;  361,450
388,385;  391,080;  324,600;  400,450
388,459;  376,200;  362,600;  379,450
388,533;  358,010;  378,600;  365,450
388,607;  363,910;  374,600;  378,450
388,682;  369,420;  369,600;  394,450
388,756;  355,780;  375,600;  378,450
388,830;  386,030;  378,600;  413,450
388,904;  381,350;  382,600;  382,450
388,978;  366,690;  368,600;  361,450
389,052;  376,800;  390,600;  343,450
389,126;  368,830;  353,600;  387,450
389,200;  370,710;  376,600;  362,450
389,275;  364,710;  382,600;  389,450
389,349;  367,800;  405,600;  380,450
389,423;  365,050;  380,600;  369,450
389,497;  377,700;  426,600;  377,450
389,571;  363,670;  391,600;  375,450
389,645;  372,430;  378,600;  388,450
389,719;  368,650;  384,600;  388,450
389,793;  340,960;  341,600;  322,450
389,867;  400,460;  410,600;  386,450
389,941;  374,070;  367,600;  369,450
390,015;  362,140;  348,600;  372,450
390,089;  361,080;  369,600;  344,450
390,163;  371,190;  368,600;  375,450
390,237;  374,680;  356,600;  361,450
390,310;  376,370;  393,600;  366,450
390,384;  379,400;  383,600;  344,450
390,458;  399,970;  414,600;  432,450
390,532;  386,380;  401,600;  395,450
390,606;  366,880;  361,600;  328,450
390,680;  364,220;  354,600;  373,450
390,754;  363,910;  373,600;  342,450
390,827;  389,730;  382,600;  388,450
390,901;  389,300;  362,600;  377,450
390,975;  367,540;  366,600;  368,450
391,049;  362,470;  374,600;  392,450
391,123;  358,780;  342,600;  367,450
391,196;  365,340;  344,600;  368,450
391,270;  375,770;  372,600;  366,450
391,344;  356,440;  384,600;  374,450
391,418;  370,400;  368,600;  366,450
391,491;  355,460;  362,600;  365,450
391,565;  359,430;  341,600;  346,450
391,639;  393,470;  379,600;  381,450
391,712;  382,310;  373,600;  385,450
391,786;  379,530;  401,600;  429,450
391,860;  367,970;  354,600;  354,450
391,933;  370,980;  366,600;  333,450
392,007;  372,000;  393,600;  364,450
392,081;  398,000;  404,600;  366,450
392,154;  377,760;  366,600;  394,450
392,228;  390,630;  392,600;  387,450
392,301;  375,740;  366,600;  402,450
392,375;  387,720;  394,600;  406,450
392,448;  377,900;  397,600;  375,450
392,522;  371,590;  382,600;  383,450
392,595;  371,660;  389,600;  365,450
392,669;  373,090;  386,600;  367,450
392,742;  392,670;  378,600;  401,450
392,816;  394,430;  376,600;  383,450
392,889;  389,690;  392,600;  401,450
392,963;  403,990;  400,600;  382,450
393,036;  383,050;  366,600;  401,450
393,110;  393,140;  388,600;  376,450
393,183;  401,880;  407,600;  399,450
393,257;  414,440;  437,600;  408,450
393,330;  364,600;  373,600;  391,450
393,403;  388,470;  410,600;  372,450
393,477;  357,150;  347,600;  364,450
393,550;  385,500;  413,600;  387,450
393,623;  382,960;  374,600;  402,450
393,697;  401,540;  404,600;  411,450
393,770;  378,390;  386,600;  364,450
393,843;  403,100;  419,600;  412,450
393,917;  393,190;  400,600;  407,450
393,990;  408,230;  378,600;  395,450
394,063;  387,620;  403,600;  375,450
394,136;  391,440;  390,600;  390,450
394,210;  392,910;  393,600;  380,450
394,283;  404,360;  385,600;  395,450
394,356;  395,550;  410,600;  373,450
394,429;  392,860;  399,600;  357,450
394,502;  383,550;  404,600;  373,450
394,576;  411,690;  416,600;  404,450
394,649;  376,670;  376,600;  381,450
394,722;  397,380;  390,600;  390,450
394,795;  407,720;  413,600;  406,450
394,868;  384,880;  369,600;  390,450
394,941;  374,690;  371,600;  368,450
395,014;  415,780;  419,600;  416,450
395,088;  396,760;  404,600;  391,450
395,161;  393,950;  402,600;  399,450
395,234;  406,200;  390,600;  397,450
395,307;  399,000;  413,600;  388,450
395,380;  384,020;  393,600;  392,450
395,453;  433,390;  439,600;  425,450
395,526;  409,720;  430,600;  407,450
395,599;  429,750;  422,600;  432,450
395,672;  394,030;  378,600;  408,450
395,745;  412,920;  400,600;  390,450
395,818;  376,370;  385,600;  376,450
395,891;  381,490;  408,600;  379,450
395,964;  414,520;  398,600;  436,450
396,036;  382,080;  400,600;  390,450
396,109;  392,380;  399,600;  381,450
396,182;  394,990;  392,600;  382,450
396,255;  397,880;  417,600;  383,450
396,328;  410,820;  412,600;  432,450
396,401;  366,620;  363,600;  381,450
396,474;  378,140;  399,600;  360,450
396,547;  398,040;  411,600;  417,450
396,619;  387,850;  384,600;  393,450
396,692;  406,330;  371,600;  354,450
396,765;  367,830;  375,600;  376,450
396,838;  385,170;  367,600;  390,450
396,911;  368,950;  363,600;  352,450
396,983;  390,900;  385,600;  396,450
397,056;  369,440;  375,600;  367,450
397,129;  381,690;  369,600;  368,450
397,201;  389,060;  413,600;  395,450
397,274;  385,090;  379,600;  382,450
397,347;  358,510;  364,600;  378,450
397,420;  385,070;  373,600;  379,450
397,492;  383,990;  404,600;  380,450
397,565;  375,350;  372,600;  365,450
397,637;  365,280;  371,600;  361,450
397,710;  350,640;  349,600;  341,450
397,783;  409,360;  444,600;  401,450
397,855;  341,890;  363,600;  346,450
397,928;  367,650;  381,600;  330,450
398,000;  391,540;  369,600;  384,450
398,073;  383,390;  376,600;  372,450
398,146;  372,210;  365,600;  358,450
398,218;  389,740;  417,600;  363,450
398,291;  382,980;  398,600;  385,450
398,363;  376,980;  370,600;  358,450
398,436;  371,210;  369,600;  360,450
398,508;  377,550;  378,600;  369,450
398,581;  375,800;  368,600;  367,450
398,653;  372,120;  318,600;  382,450
398,726;  372,630;  376,600;  371,450
398,798;  380,830;  390,600;  376,450
398,870;  391,320;  374,600;  374,450
398,943;  363,570;  371,600;  357,450
399,015;  363,960;  362,600;  383,450
399,088;  387,070;  377,600;  373,450
399,160;  367,070;  370,600;  348,450
399,232;  345,700;  332,600;  349,450
399,305;  366,380;  379,600;  362,450
399,377;  375,660;  350,600;  343,450
399,449;  377,020;  398,600;  388,450
399,522;  418,480;  442,600;  416,450
399,594;  362,030;  359,600;  346,450
399,666;  378,450;  393,600;  361,450
399,738;  368,570;  378,600;  375,450
399,811;  370,490;  370,600;  388,450
399,883;  381,720;  392,600;  378,450
399,955;  389,200;  429,600;  331,450
400,027;  345,100;  342,600;  364,450
400,100;  403,660;  402,600;  427,450
400,172;  345,330;  360,600;  354,450
400,244;  373,640;  369,600;  361,450
400,316;  390,830;  396,600;  381,450
400,388;  383,740;  408,600;  368,450
400,460;  359,010;  350,600;  359,450
400,532;  344,990;  329,600;  337,450
400,605;  375,540;  378,600;  368,450
400,677;  396,500;  389,600;  380,450
400,749;  390,770;  403,600;  406,450
400,821;  382,350;  384,600;  385,450
400,893;  372,420;  364,600;  384,450
400,965;  386,460;  390,600;  380,450
401,037;  381,250;  376,600;  402,450
401,109;  367,450;  363,600;  365,450
401,181;  376,340;  383,600;  398,450

