p100promedio
Integration time [ms]:   0,150
Averaging Nr. [scans]: 100
Smoothing Nr. [pixels]: 0
Data measured with spectrometer [name]: 7416147SP
Wave   ;Sample   ;Dark     ;Reference
[nm]   ;[counts] ;[counts] ;[counts] 

230,218;  292,237;  284,600;  274,450
230,311;  317,277;  306,600;  296,450
230,404;  309,157;  298,600;  326,450
230,497;  315,337;  295,600;  309,450
230,591;  335,457;  342,600;  328,450
230,684;  328,287;  317,600;  333,450
230,777;  312,607;  318,600;  312,450
230,870;  311,997;  330,600;  321,450
230,964;  310,527;  321,600;  306,450
231,057;  336,677;  306,600;  332,450
231,150;  329,737;  320,600;  304,450
231,243;  326,447;  310,600;  310,450
231,336;  330,847;  334,600;  326,450
231,430;  315,017;  320,600;  279,450
231,523;  323,117;  346,600;  304,450
231,616;  305,587;  297,600;  290,450
231,709;  340,007;  328,600;  315,450
231,802;  311,197;  280,600;  295,450
231,895;  313,297;  293,600;  313,450
231,988;  324,167;  312,600;  320,450
232,082;  307,127;  316,600;  281,450
232,175;  309,067;  289,600;  279,450
232,268;  312,457;  319,600;  301,450
232,361;  315,017;  288,600;  264,450
232,454;  330,137;  297,600;  320,450
232,547;  326,877;  333,600;  272,450
232,640;  301,537;  314,600;  287,450
232,733;  329,047;  297,600;  300,450
232,826;  302,167;  303,600;  270,450
232,919;  324,817;  318,600;  294,450
233,012;  299,077;  322,600;  292,450
233,105;  310,387;  318,600;  283,450
233,199;  310,757;  324,600;  298,450
233,292;  306,017;  293,600;  307,450
233,385;  271,747;  262,600;  233,450
233,478;  304,697;  302,600;  272,450
233,571;  332,687;  314,600;  293,450
233,664;  316,497;  341,600;  283,450
233,757;  291,367;  254,600;  231,450
233,850;  289,837;  272,600;  248,450
233,943;  299,967;  298,600;  272,450
234,035;  311,457;  318,600;  292,450
234,128;  293,887;  282,600;  265,450
234,221;  310,387;  310,600;  293,450
234,314;  320,147;  333,600;  318,450
234,407;  319,287;  338,600;  286,450
234,500;  290,767;  286,600;  280,450
234,593;  297,817;  280,600;  290,450
234,686;  304,617;  276,600;  256,450
234,779;  300,747;  270,600;  275,450
234,872;  288,567;  276,600;  261,450
234,965;  299,937;  298,600;  286,450
235,058;  286,387;  269,600;  263,450
235,150;  298,537;  311,600;  286,450
235,243;  294,557;  280,600;  311,450
235,336;  311,497;  317,600;  296,450
235,429;  283,157;  258,600;  241,450
235,522;  342,637;  352,600;  293,450
235,615;  270,827;  309,600;  253,450
235,707;  295,627;  289,600;  277,450
235,800;  297,067;  302,600;  268,450
235,893;  301,387;  328,600;  262,450
235,986;  313,887;  305,600;  312,450
236,079;  297,947;  310,600;  308,450
236,171;  281,627;  272,600;  270,450
236,264;  322,437;  310,600;  282,450
236,357;  301,007;  289,600;  297,450
236,450;  324,917;  314,600;  308,450
236,542;  278,397;  286,600;  258,450
236,635;  324,787;  319,600;  287,450
236,728;  299,147;  276,600;  273,450
236,821;  289,817;  270,600;  268,450
236,913;  289,147;  326,600;  268,450
237,006;  279,677;  300,600;  257,450
237,099;  294,977;  289,600;  271,450
237,191;  310,647;  345,600;  288,450
237,284;  279,577;  256,600;  282,450
237,377;  303,987;  294,600;  312,450
237,470;  292,557;  291,600;  256,450
237,562;  291,037;  266,600;  261,450
237,655;  330,407;  342,600;  294,450
237,747;  307,047;  325,600;  263,450
237,840;  324,967;  292,600;  302,450
237,933;  309,197;  327,600;  284,450
238,025;  311,737;  338,600;  306,450
238,118;  291,417;  306,600;  287,450
238,211;  284,097;  282,600;  227,450
238,303;  278,827;  277,600;  273,450
238,396;  276,657;  289,600;  270,450
238,488;  302,267;  300,600;  281,450
238,581;  298,677;  306,600;  235,450
238,673;  297,517;  304,600;  273,450
238,766;  292,207;  268,600;  282,450
238,859;  280,857;  282,600;  277,450
238,951;  291,177;  295,600;  280,450
239,044;  284,927;  270,600;  283,450
239,136;  281,777;  269,600;  284,450
239,229;  291,097;  297,600;  291,450
239,321;  284,157;  262,600;  248,450
239,414;  303,987;  289,600;  288,450
239,506;  295,767;  280,600;  267,450
239,599;  327,697;  352,600;  292,450
239,691;  294,437;  306,600;  269,450
239,784;  315,047;  296,600;  288,450
239,876;  303,287;  280,600;  288,450
239,969;  297,167;  287,600;  281,450
240,061;  280,107;  277,600;  262,450
240,153;  288,927;  260,600;  278,450
240,246;  294,977;  295,600;  292,450
240,338;  320,767;  309,600;  324,450
240,431;  280,317;  277,600;  282,450
240,523;  280,187;  300,600;  237,450
240,615;  310,447;  293,600;  321,450
240,708;  319,897;  355,600;  292,450
240,800;  299,317;  302,600;  288,450
240,893;  283,577;  274,600;  261,450
240,985;  299,257;  321,600;  270,450
241,077;  280,237;  268,600;  262,450
241,170;  310,657;  313,600;  286,450
241,262;  302,617;  284,600;  284,450
241,354;  263,347;  246,600;  244,450
241,447;  293,567;  286,600;  271,450
241,539;  281,047;  295,600;  247,450
241,631;  326,117;  312,600;  279,450
241,724;  270,647;  261,600;  246,450
241,816;  290,217;  258,600;  264,450
241,908;  289,227;  278,600;  263,450
242,000;  288,747;  283,600;  263,450
242,093;  293,157;  303,600;  261,450
242,185;  287,937;  306,600;  269,450
242,277;  286,347;  282,600;  242,450
242,369;  295,497;  278,600;  269,450
242,462;  284,407;  271,600;  247,450
242,554;  288,447;  253,600;  266,450
242,646;  293,357;  282,600;  270,450
242,738;  317,757;  320,600;  281,450
242,830;  271,547;  292,600;  230,450
242,923;  307,667;  309,600;  303,450
243,015;  277,977;  288,600;  269,450
243,107;  278,677;  280,600;  253,450
243,199;  287,257;  309,600;  300,450
243,291;  282,457;  319,600;  253,450
243,383;  264,347;  240,600;  273,450
243,476;  277,267;  257,600;  282,450
243,568;  292,547;  293,600;  284,450
243,660;  285,387;  260,600;  268,450
243,752;  294,237;  305,600;  270,450
243,844;  310,867;  299,600;  284,450
243,936;  299,967;  316,600;  299,450
244,028;  314,017;  332,600;  290,450
244,120;  260,677;  267,600;  230,450
244,212;  300,667;  298,600;  289,450
244,305;  276,057;  267,600;  270,450
244,397;  305,917;  315,600;  267,450
244,489;  310,207;  303,600;  285,450
244,581;  306,457;  301,600;  279,450
244,673;  292,857;  286,600;  252,450
244,765;  296,247;  277,600;  293,450
244,857;  294,537;  303,600;  251,450
244,949;  294,367;  305,600;  282,450
245,041;  260,537;  250,600;  223,450
245,133;  305,167;  294,600;  292,450
245,225;  287,687;  258,600;  248,450
245,317;  294,677;  253,600;  267,450
245,409;  272,007;  282,600;  263,450
245,501;  298,047;  286,600;  265,450
245,593;  298,347;  328,600;  278,450
245,685;  294,337;  330,600;  286,450
245,776;  293,127;  298,600;  267,450
245,868;  278,577;  308,600;  263,450
245,960;  270,857;  242,600;  252,450
246,052;  318,577;  291,600;  307,450
246,144;  300,767;  282,600;  285,450
246,236;  291,697;  296,600;  257,450
246,328;  300,557;  285,600;  287,450
246,420;  289,757;  282,600;  270,450
246,512;  318,037;  303,600;  295,450
246,604;  288,977;  280,600;  278,450
246,695;  277,017;  275,600;  268,450
246,787;  305,757;  288,600;  299,450
246,879;  302,217;  296,600;  275,450
246,971;  308,167;  305,600;  285,450
247,063;  287,227;  281,600;  253,450
247,155;  303,887;  295,600;  240,450
247,246;  292,077;  305,600;  285,450
247,338;  297,277;  297,600;  287,450
247,430;  307,057;  298,600;  312,450
247,522;  311,937;  294,600;  294,450
247,613;  310,147;  287,600;  278,450
247,705;  301,127;  302,600;  286,450
247,797;  322,257;  322,600;  301,450
247,889;  311,807;  294,600;  286,450
247,980;  315,277;  318,600;  273,450
248,072;  328,727;  315,600;  275,450
248,164;  344,907;  368,600;  297,450
248,256;  297,977;  280,600;  302,450
248,347;  316,997;  312,600;  275,450
248,439;  291,967;  302,600;  260,450
248,531;  311,877;  301,600;  297,450
248,622;  314,937;  315,600;  318,450
248,714;  286,237;  303,600;  257,450
248,806;  307,477;  301,600;  287,450
248,897;  303,737;  266,600;  290,450
248,989;  274,607;  260,600;  246,450
249,081;  297,427;  291,600;  305,450
249,172;  299,787;  289,600;  264,450
249,264;  282,327;  310,600;  303,450
249,356;  283,487;  274,600;  253,450
249,447;  295,647;  287,600;  283,450
249,539;  300,637;  289,600;  288,450
249,630;  303,307;  296,600;  286,450
249,722;  328,447;  310,600;  305,450
249,813;  294,997;  302,600;  256,450
249,905;  303,277;  319,600;  291,450
249,997;  291,207;  270,600;  248,450
250,088;  299,527;  295,600;  285,450
250,180;  297,637;  280,600;  288,450
250,271;  297,117;  296,600;  268,450
250,363;  332,887;  329,600;  307,450
250,454;  287,417;  268,600;  238,450
250,546;  305,317;  271,600;  272,450
250,637;  277,757;  285,600;  242,450
250,729;  289,287;  267,600;  250,450
250,820;  308,657;  306,600;  297,450
250,912;  282,837;  299,600;  243,450
251,003;  298,587;  285,600;  296,450
251,095;  299,727;  296,600;  273,450
251,186;  291,687;  269,600;  253,450
251,277;  295,357;  276,600;  290,450
251,369;  296,017;  295,600;  275,450
251,460;  295,217;  272,600;  272,450
251,552;  306,507;  293,600;  292,450
251,643;  301,317;  292,600;  276,450
251,735;  297,197;  303,600;  241,450
251,826;  294,497;  313,600;  259,450
251,917;  323,067;  325,600;  258,450
252,009;  323,357;  338,600;  254,450
252,100;  329,167;  343,600;  266,450
252,191;  349,497;  337,600;  260,450
252,283;  344,327;  328,600;  299,450
252,374;  374,377;  372,600;  289,450
252,465;  396,497;  390,600;  301,450
252,557;  392,557;  393,600;  251,450
252,648;  387,247;  378,600;  258,450
252,739;  426,407;  397,600;  267,450
252,831;  423,737;  439,600;  250,450
252,922;  464,717;  440,600;  266,450
253,013;  512,097;  520,600;  241,450
253,104;  571,367;  576,600;  255,450
253,196;  685,607;  712,600;  265,450
253,287;  839,547;  807,600;  289,450
253,378; 1218,467; 1233,600;  257,450
253,469; 4218,427; 4083,600;  246,450
253,561;23015,188;23239,600;  253,450
253,652;42103,938;42949,602;  272,450
253,743; 5758,977; 5893,600;  210,450
253,834;  624,627;  622,600;  260,450
253,926;  502,167;  531,600;  249,450
254,017;  480,157;  459,600;  280,450
254,108;  443,267;  528,600;  290,450
254,199;  430,887;  418,600;  277,450
254,290;  432,107;  380,600;  290,450
254,381;  409,247;  429,600;  276,450
254,472;  413,257;  437,600;  250,450
254,564;  415,427;  411,600;  327,450
254,655;  389,927;  392,600;  304,450
254,746;  345,687;  345,600;  225,450
254,837;  378,857;  372,600;  282,450
254,928;  353,427;  368,600;  247,450
255,019;  361,367;  375,600;  281,450
255,110;  363,987;  357,600;  302,450
255,201;  350,667;  318,600;  284,450
255,292;  376,007;  381,600;  271,450
255,383;  340,797;  347,600;  265,450
255,474;  337,537;  329,600;  248,450
255,566;  347,217;  366,600;  271,450
255,657;  346,307;  350,600;  306,450
255,748;  310,327;  292,600;  235,450
255,839;  315,017;  331,600;  282,450
255,930;  324,907;  292,600;  302,450
256,021;  331,777;  336,600;  297,450
256,112;  312,897;  296,600;  257,450
256,203;  342,477;  339,600;  315,450
256,294;  325,187;  321,600;  265,450
256,384;  304,537;  279,600;  261,450
256,475;  316,107;  289,600;  284,450
256,566;  301,617;  297,600;  274,450
256,657;  294,897;  291,600;  267,450
256,748;  295,567;  302,600;  280,450
256,839;  291,027;  281,600;  274,450
256,930;  297,477;  278,600;  260,450
257,021;  320,937;  328,600;  283,450
257,112;  320,807;  311,600;  327,450
257,203;  273,037;  268,600;  240,450
257,294;  270,437;  276,600;  257,450
257,385;  301,827;  284,600;  272,450
257,475;  291,747;  277,600;  255,450
257,566;  302,647;  313,600;  267,450
257,657;  283,567;  339,600;  264,450
257,748;  282,787;  283,600;  252,450
257,839;  292,817;  319,600;  306,450
257,930;  296,497;  276,600;  275,450
258,020;  279,427;  278,600;  281,450
258,111;  275,997;  285,600;  256,450
258,202;  299,027;  309,600;  258,450
258,293;  291,707;  267,600;  255,450
258,384;  313,357;  329,600;  295,450
258,474;  295,627;  296,600;  244,450
258,565;  277,047;  250,600;  252,450
258,656;  301,977;  306,600;  257,450
258,747;  276,937;  293,600;  255,450
258,837;  278,747;  266,600;  231,450
258,928;  282,937;  247,600;  280,450
259,019;  279,767;  272,600;  264,450
259,109;  273,937;  264,600;  254,450
259,200;  294,537;  292,600;  291,450
259,291;  274,517;  246,600;  297,450
259,381;  300,077;  309,600;  264,450
259,472;  302,527;  299,600;  272,450
259,563;  307,227;  307,600;  273,450
259,653;  284,417;  281,600;  247,450
259,744;  274,177;  280,600;  260,450
259,835;  306,607;  284,600;  274,450
259,925;  277,027;  257,600;  276,450
260,016;  294,057;  303,600;  282,450
260,107;  264,977;  264,600;  265,450
260,197;  288,127;  279,600;  258,450
260,288;  281,417;  263,600;  273,450
260,378;  276,597;  274,600;  244,450
260,469;  293,197;  299,600;  273,450
260,560;  271,277;  267,600;  276,450
260,650;  278,237;  269,600;  265,450
260,741;  285,147;  279,600;  256,450
260,831;  279,657;  246,600;  276,450
260,922;  272,097;  271,600;  258,450
261,012;  278,167;  271,600;  256,450
261,103;  303,347;  320,600;  294,450
261,193;  308,597;  317,600;  320,450
261,284;  271,107;  256,600;  254,450
261,374;  302,557;  295,600;  253,450
261,465;  292,287;  321,600;  304,450
261,555;  281,887;  271,600;  275,450
261,646;  295,977;  290,600;  300,450
261,736;  290,067;  265,600;  287,450
261,827;  285,557;  293,600;  256,450
261,917;  313,167;  294,600;  344,450
262,007;  286,677;  269,600;  289,450
262,098;  288,867;  334,600;  256,450
262,188;  332,357;  316,600;  305,450
262,279;  299,157;  290,600;  292,450
262,369;  290,577;  276,600;  282,450
262,459;  290,047;  262,600;  260,450
262,550;  302,357;  314,600;  290,450
262,640;  273,737;  261,600;  274,450
262,731;  300,847;  302,600;  298,450
262,821;  309,077;  287,600;  323,450
262,911;  301,957;  312,600;  268,450
263,002;  295,477;  278,600;  271,450
263,092;  307,707;  292,600;  309,450
263,182;  285,777;  280,600;  257,450
263,273;  289,237;  277,600;  261,450
263,363;  296,807;  309,600;  284,450
263,453;  267,647;  266,600;  259,450
263,543;  295,297;  289,600;  326,450
263,634;  264,817;  263,600;  262,450
263,724;  295,917;  278,600;  276,450
263,814;  308,967;  304,600;  288,450
263,904;  284,667;  270,600;  267,450
263,995;  323,427;  306,600;  321,450
264,085;  296,787;  301,600;  259,450
264,175;  297,827;  284,600;  306,450
264,265;  318,237;  305,600;  298,450
264,356;  273,207;  260,600;  289,450
264,446;  311,907;  296,600;  298,450
264,536;  299,137;  270,600;  297,450
264,626;  319,817;  315,600;  295,450
264,716;  301,617;  330,600;  277,450
264,806;  314,257;  327,600;  306,450
264,897;  260,677;  255,600;  273,450
264,987;  310,807;  310,600;  286,450
265,077;  313,487;  297,600;  285,450
265,167;  375,437;  394,600;  346,450
265,257;  335,257;  333,600;  273,450
265,347;  331,717;  331,600;  286,450
265,437;  319,227;  304,600;  289,450
265,527;  312,217;  314,600;  292,450
265,617;  284,107;  292,600;  265,450
265,708;  318,567;  330,600;  308,450
265,798;  305,667;  315,600;  301,450
265,888;  306,367;  275,600;  270,450
265,978;  292,427;  274,600;  242,450
266,068;  312,757;  291,600;  316,450
266,158;  295,997;  288,600;  254,450
266,248;  273,647;  305,600;  248,450
266,338;  312,557;  307,600;  293,450
266,428;  302,977;  294,600;  259,450
266,518;  313,597;  321,600;  320,450
266,608;  296,567;  245,600;  273,450
266,698;  274,107;  284,600;  256,450
266,788;  275,557;  263,600;  248,450
266,878;  327,417;  350,600;  317,450
266,968;  306,927;  282,600;  304,450
267,058;  301,027;  280,600;  292,450
267,147;  305,317;  327,600;  300,450
267,237;  294,487;  293,600;  276,450
267,327;  285,127;  292,600;  276,450
267,417;  300,447;  320,600;  264,450
267,507;  293,817;  297,600;  294,450
267,597;  282,267;  273,600;  272,450
267,687;  283,577;  268,600;  286,450
267,777;  284,727;  267,600;  270,450
267,867;  313,777;  321,600;  296,450
267,956;  304,497;  282,600;  257,450
268,046;  309,747;  306,600;  298,450
268,136;  297,147;  265,600;  291,450
268,226;  276,357;  269,600;  261,450
268,316;  279,877;  266,600;  262,450
268,406;  288,817;  268,600;  338,450
268,495;  282,287;  278,600;  259,450
268,585;  309,667;  304,600;  263,450
268,675;  282,747;  296,600;  260,450
268,765;  297,097;  296,600;  287,450
268,854;  285,587;  277,600;  291,450
268,944;  293,137;  288,600;  299,450
269,034;  283,847;  313,600;  279,450
269,124;  284,117;  283,600;  286,450
269,213;  284,177;  277,600;  255,450
269,303;  290,537;  290,600;  247,450
269,393;  302,007;  265,600;  307,450
269,483;  302,507;  338,600;  273,450
269,572;  281,837;  295,600;  243,450
269,662;  279,287;  286,600;  301,450
269,752;  315,367;  320,600;  299,450
269,841;  272,967;  270,600;  247,450
269,931;  283,757;  264,600;  276,450
270,021;  302,977;  299,600;  295,450
270,110;  285,707;  286,600;  268,450
270,200;  298,377;  329,600;  299,450
270,289;  285,827;  258,600;  279,450
270,379;  304,067;  315,600;  282,450
270,469;  291,827;  297,600;  273,450
270,558;  304,267;  300,600;  286,450
270,648;  284,747;  266,600;  245,450
270,737;  290,727;  288,600;  271,450
270,827;  309,357;  279,600;  263,450
270,916;  288,187;  266,600;  280,450
271,006;  296,027;  287,600;  287,450
271,096;  317,747;  312,600;  334,450
271,185;  287,597;  307,600;  299,450
271,275;  305,347;  305,600;  279,450
271,364;  283,027;  300,600;  286,450
271,454;  310,127;  301,600;  273,450
271,543;  295,077;  295,600;  279,450
271,633;  294,837;  293,600;  257,450
271,722;  291,017;  240,600;  257,450
271,812;  285,367;  255,600;  299,450
271,901;  290,847;  276,600;  286,450
271,990;  291,087;  293,600;  267,450
272,080;  288,797;  282,600;  284,450
272,169;  299,137;  339,600;  288,450
272,259;  293,467;  319,600;  275,450
272,348;  305,257;  291,600;  305,450
272,438;  295,587;  302,600;  301,450
272,527;  304,177;  288,600;  290,450
272,616;  305,817;  295,600;  300,450
272,706;  324,937;  319,600;  313,450
272,795;  311,987;  285,600;  290,450
272,884;  298,897;  302,600;  294,450
272,974;  320,097;  281,600;  279,450
273,063;  335,107;  361,600;  290,450
273,152;  299,687;  299,600;  296,450
273,242;  324,777;  296,600;  311,450
273,331;  320,617;  306,600;  299,450
273,420;  304,287;  296,600;  313,450
273,510;  306,327;  292,600;  311,450
273,599;  305,187;  323,600;  312,450
273,688;  304,607;  311,600;  299,450
273,778;  283,067;  266,600;  259,450
273,867;  320,067;  287,600;  312,450
273,956;  303,067;  303,600;  273,450
274,045;  270,907;  263,600;  236,450
274,135;  306,267;  317,600;  317,450
274,224;  289,517;  316,600;  295,450
274,313;  303,437;  299,600;  294,450
274,402;  283,707;  263,600;  266,450
274,491;  312,027;  277,600;  286,450
274,581;  301,537;  302,600;  266,450
274,670;  288,947;  311,600;  303,450
274,759;  297,487;  303,600;  283,450
274,848;  278,357;  275,600;  301,450
274,937;  286,857;  276,600;  293,450
275,026;  286,977;  298,600;  255,450
275,116;  318,107;  323,600;  309,450
275,205;  291,857;  263,600;  231,450
275,294;  326,307;  333,600;  302,450
275,383;  297,817;  253,600;  278,450
275,472;  288,047;  286,600;  299,450
275,561;  292,127;  299,600;  300,450
275,650;  303,577;  289,600;  281,450
275,739;  295,177;  268,600;  287,450
275,828;  275,177;  262,600;  259,450
275,917;  310,217;  318,600;  305,450
276,006;  298,597;  255,600;  304,450
276,095;  294,317;  276,600;  294,450
276,184;  305,287;  317,600;  317,450
276,273;  303,047;  270,600;  297,450
276,362;  272,497;  260,600;  256,450
276,451;  296,467;  271,600;  286,450
276,540;  290,657;  259,600;  271,450
276,629;  290,237;  274,600;  290,450
276,718;  266,797;  268,600;  258,450
276,807;  272,357;  275,600;  256,450
276,896;  282,847;  269,600;  277,450
276,985;  285,827;  287,600;  255,450
277,074;  293,867;  270,600;  267,450
277,163;  295,057;  289,600;  281,450
277,252;  277,827;  269,600;  278,450
277,341;  284,107;  272,600;  248,450
277,430;  277,867;  239,600;  255,450
277,519;  301,817;  304,600;  293,450
277,608;  264,617;  254,600;  244,450
277,696;  267,127;  272,600;  279,450
277,785;  280,727;  255,600;  276,450
277,874;  296,677;  285,600;  259,450
277,963;  286,657;  273,600;  248,450
278,052;  264,257;  264,600;  286,450
278,141;  289,947;  289,600;  267,450
278,229;  288,567;  279,600;  278,450
278,318;  267,317;  278,600;  269,450
278,407;  284,997;  288,600;  264,450
278,496;  284,567;  319,600;  277,450
278,585;  300,457;  288,600;  297,450
278,673;  262,407;  257,600;  251,450
278,762;  270,017;  238,600;  264,450
278,851;  286,947;  293,600;  272,450
278,940;  302,747;  293,600;  318,450
279,028;  297,107;  271,600;  284,450
279,117;  285,167;  290,600;  283,450
279,206;  281,497;  260,600;  254,450
279,294;  283,277;  280,600;  268,450
279,383;  289,587;  272,600;  289,450
279,472;  297,147;  311,600;  252,450
279,561;  279,147;  264,600;  275,450
279,649;  307,177;  305,600;  283,450
279,738;  255,547;  229,600;  266,450
279,827;  307,837;  285,600;  272,450
279,915;  275,347;  283,600;  248,450
280,004;  288,127;  273,600;  285,450
280,092;  305,647;  286,600;  275,450
280,181;  287,127;  284,600;  249,450
280,270;  295,177;  280,600;  236,450
280,358;  305,467;  299,600;  288,450
280,447;  269,157;  246,600;  240,450
280,535;  278,777;  284,600;  259,450
280,624;  277,647;  291,600;  256,450
280,713;  281,987;  267,600;  266,450
280,801;  295,647;  303,600;  274,450
280,890;  293,137;  262,600;  274,450
280,978;  282,207;  267,600;  239,450
281,067;  255,177;  229,600;  244,450
281,155;  280,527;  267,600;  279,450
281,244;  317,947;  301,600;  299,450
281,332;  293,697;  252,600;  297,450
281,421;  272,267;  273,600;  229,450
281,509;  284,247;  266,600;  268,450
281,598;  263,547;  255,600;  241,450
281,686;  288,577;  300,600;  277,450
281,775;  288,567;  283,600;  280,450
281,863;  279,047;  244,600;  264,450
281,951;  280,497;  254,600;  256,450
282,040;  310,967;  289,600;  320,450
282,128;  300,757;  289,600;  290,450
282,217;  270,867;  255,600;  246,450
282,305;  301,457;  291,600;  280,450
282,393;  285,147;  332,600;  266,450
282,482;  288,837;  314,600;  268,450
282,570;  278,517;  274,600;  279,450
282,658;  288,507;  295,600;  277,450
282,747;  277,767;  257,600;  278,450
282,835;  312,607;  319,600;  305,450
282,923;  268,517;  230,600;  262,450
283,012;  295,307;  268,600;  305,450
283,100;  271,967;  263,600;  230,450
283,188;  261,517;  244,600;  243,450
283,277;  288,457;  279,600;  282,450
283,365;  274,457;  252,600;  253,450
283,453;  265,477;  253,600;  228,450
283,542;  292,427;  293,600;  259,450
283,630;  278,627;  259,600;  271,450
283,718;  271,637;  271,600;  247,450
283,806;  245,497;  225,600;  226,450
283,894;  273,897;  276,600;  274,450
283,983;  284,237;  256,600;  279,450
284,071;  287,847;  307,600;  269,450
284,159;  307,747;  319,600;  305,450
284,247;  290,907;  296,600;  287,450
284,335;  286,407;  267,600;  263,450
284,424;  287,067;  287,600;  269,450
284,512;  285,997;  295,600;  248,450
284,600;  279,897;  261,600;  236,450
284,688;  313,847;  297,600;  325,450
284,776;  289,067;  259,600;  277,450
284,864;  309,927;  327,600;  300,450
284,952;  291,777;  291,600;  276,450
285,041;  295,957;  286,600;  304,450
285,129;  303,517;  304,600;  290,450
285,217;  305,367;  309,600;  280,450
285,305;  318,107;  297,600;  304,450
285,393;  275,557;  255,600;  268,450
285,481;  292,107;  292,600;  274,450
285,569;  283,147;  297,600;  281,450
285,657;  297,157;  272,600;  276,450
285,745;  294,467;  334,600;  282,450
285,833;  293,667;  277,600;  294,450
285,921;  300,817;  301,600;  299,450
286,009;  303,207;  308,600;  308,450
286,097;  299,347;  313,600;  288,450
286,185;  287,107;  294,600;  259,450
286,273;  278,617;  302,600;  257,450
286,361;  307,057;  322,600;  287,450
286,449;  294,507;  305,600;  260,450
286,537;  301,047;  300,600;  248,450
286,625;  291,977;  300,600;  275,450
286,713;  280,647;  262,600;  270,450
286,801;  307,047;  320,600;  307,450
286,889;  316,247;  304,600;  282,450
286,976;  290,587;  271,600;  266,450
287,064;  309,907;  297,600;  309,450
287,152;  303,987;  332,600;  299,450
287,240;  307,227;  297,600;  327,450
287,328;  284,697;  249,600;  245,450
287,416;  288,557;  295,600;  277,450
287,504;  296,557;  302,600;  274,450
287,591;  297,497;  317,600;  307,450
287,679;  281,277;  272,600;  275,450
287,767;  300,077;  270,600;  292,450
287,855;  303,957;  271,600;  284,450
287,943;  306,837;  312,600;  269,450
288,030;  289,437;  246,600;  293,450
288,118;  317,207;  325,600;  295,450
288,206;  280,167;  264,600;  290,450
288,294;  300,367;  273,600;  292,450
288,382;  302,597;  301,600;  288,450
288,469;  305,087;  324,600;  274,450
288,557;  294,057;  276,600;  275,450
288,645;  321,877;  321,600;  281,450
288,732;  275,517;  274,600;  276,450
288,820;  305,147;  334,600;  270,450
288,908;  301,857;  295,600;  295,450
288,995;  313,237;  295,600;  277,450
289,083;  293,997;  278,600;  278,450
289,171;  331,657;  328,600;  310,450
289,258;  378,167;  402,600;  311,450
289,346;  430,627;  433,600;  329,450
289,434;  310,987;  345,600;  318,450
289,521;  283,957;  298,600;  281,450
289,609;  320,297;  317,600;  309,450
289,697;  315,197;  310,600;  321,450
289,784;  295,897;  300,600;  284,450
289,872;  312,597;  314,600;  313,450
289,959;  285,417;  274,600;  262,450
290,047;  297,947;  268,600;  272,450
290,134;  270,787;  286,600;  264,450
290,222;  309,767;  317,600;  294,450
290,310;  304,967;  310,600;  280,450
290,397;  331,277;  302,600;  319,450
290,485;  287,267;  291,600;  284,450
290,572;  311,957;  286,600;  318,450
290,660;  303,767;  300,600;  293,450
290,747;  293,047;  292,600;  290,450
290,835;  295,177;  296,600;  321,450
290,922;  302,077;  307,600;  294,450
291,009;  299,347;  310,600;  283,450
291,097;  298,437;  305,600;  282,450
291,184;  332,167;  319,600;  313,450
291,272;  285,427;  297,600;  264,450
291,359;  283,767;  283,600;  283,450
291,447;  301,927;  294,600;  309,450
291,534;  322,807;  310,600;  315,450
291,621;  299,647;  261,600;  308,450
291,709;  280,017;  284,600;  270,450
291,796;  315,817;  313,600;  323,450
291,884;  292,737;  310,600;  308,450
291,971;  316,907;  306,600;  287,450
292,058;  287,787;  250,600;  294,450
292,146;  296,587;  293,600;  279,450
292,233;  279,977;  284,600;  243,450
292,320;  292,007;  294,600;  284,450
292,408;  312,057;  316,600;  297,450
292,495;  299,647;  302,600;  281,450
292,582;  286,467;  276,600;  273,450
292,669;  281,157;  273,600;  285,450
292,757;  282,877;  292,600;  288,450
292,844;  311,227;  305,600;  312,450
292,931;  276,197;  272,600;  266,450
293,018;  291,017;  267,600;  264,450
293,106;  297,927;  290,600;  324,450
293,193;  268,177;  265,600;  280,450
293,280;  299,607;  304,600;  310,450
293,367;  291,657;  279,600;  295,450
293,455;  291,177;  253,600;  248,450
293,542;  274,577;  264,600;  268,450
293,629;  278,547;  264,600;  272,450
293,716;  305,987;  341,600;  307,450
293,803;  283,647;  273,600;  279,450
293,890;  306,887;  284,600;  298,450
293,978;  285,807;  277,600;  266,450
294,065;  281,787;  293,600;  268,450
294,152;  300,807;  276,600;  315,450
294,239;  271,637;  294,600;  269,450
294,326;  282,607;  307,600;  277,450
294,413;  275,067;  280,600;  253,450
294,500;  289,957;  304,600;  286,450
294,587;  282,277;  291,600;  255,450
294,674;  303,527;  280,600;  314,450
294,761;  288,897;  283,600;  266,450
294,848;  288,897;  275,600;  288,450
294,935;  292,297;  281,600;  279,450
295,022;  270,137;  269,600;  243,450
295,109;  260,437;  259,600;  253,450
295,196;  291,727;  297,600;  309,450
295,283;  273,207;  295,600;  256,450
295,370;  311,657;  318,600;  307,450
295,457;  286,127;  266,600;  285,450
295,544;  284,707;  277,600;  264,450
295,631;  291,867;  282,600;  272,450
295,718;  273,807;  279,600;  248,450
295,805;  300,317;  298,600;  281,450
295,892;  303,677;  314,600;  274,450
295,979;  294,937;  294,600;  284,450
296,066;  298,757;  306,600;  278,450
296,153;  299,967;  313,600;  324,450
296,240;  303,217;  312,600;  282,450
296,327;  294,077;  286,600;  257,450
296,413;  315,997;  316,600;  272,450
296,500;  333,047;  330,600;  261,450
296,587;  551,077;  534,600;  268,450
296,674; 1701,217; 1749,600;  263,450
296,761;  772,577;  786,600;  252,450
296,848;  299,947;  299,600;  274,450
296,934;  296,637;  296,600;  274,450
297,021;  293,557;  286,600;  266,450
297,108;  278,007;  310,600;  269,450
297,195;  290,587;  276,600;  268,450
297,282;  285,657;  295,600;  273,450
297,368;  307,937;  297,600;  347,450
297,455;  279,237;  284,600;  259,450
297,542;  310,907;  330,600;  316,450
297,629;  297,937;  315,600;  290,450
297,715;  305,527;  309,600;  306,450
297,802;  301,627;  286,600;  273,450
297,889;  310,727;  307,600;  319,450
297,975;  321,937;  326,600;  320,450
298,062;  313,947;  325,600;  301,450
298,149;  275,877;  300,600;  269,450
298,235;  296,237;  286,600;  308,450
298,322;  293,387;  287,600;  291,450
298,409;  310,067;  340,600;  304,450
298,495;  280,097;  282,600;  250,450
298,582;  306,737;  303,600;  304,450
298,669;  293,447;  290,600;  290,450
298,755;  295,827;  295,600;  281,450
298,842;  301,597;  315,600;  314,450
298,928;  299,657;  298,600;  281,450
299,015;  292,857;  287,600;  296,450
299,102;  318,147;  306,600;  309,450
299,188;  312,137;  307,600;  292,450
299,275;  307,527;  313,600;  289,450
299,361;  276,167;  274,600;  256,450
299,448;  305,667;  283,600;  278,450
299,534;  310,097;  328,600;  282,450
299,621;  304,207;  323,600;  302,450
299,707;  297,017;  298,600;  298,450
299,794;  313,767;  318,600;  322,450
299,880;  315,527;  301,600;  313,450
299,967;  296,757;  285,600;  251,450
300,053;  293,847;  301,600;  301,450
300,140;  326,277;  314,600;  315,450
300,226;  309,777;  320,600;  297,450
300,312;  304,047;  310,600;  306,450
300,399;  303,957;  290,600;  309,450
300,485;  297,287;  310,600;  268,450
300,572;  278,197;  272,600;  257,450
300,658;  288,647;  299,600;  272,450
300,744;  306,657;  310,600;  301,450
300,831;  312,287;  302,600;  292,450
300,917;  318,287;  298,600;  310,450
301,004;  309,987;  299,600;  288,450
301,090;  277,677;  279,600;  254,450
301,176;  282,287;  284,600;  254,450
301,263;  312,937;  322,600;  282,450
301,349;  289,847;  294,600;  273,450
301,435;  278,727;  267,600;  268,450
301,521;  312,857;  323,600;  301,450
301,608;  308,967;  311,600;  319,450
301,694;  295,607;  304,600;  283,450
301,780;  300,337;  296,600;  288,450
301,867;  285,957;  281,600;  274,450
301,953;  304,197;  289,600;  304,450
302,039;  394,887;  409,600;  273,450
302,125;  539,257;  539,600;  281,450
302,211;  358,497;  349,600;  300,450
302,298;  350,517;  374,600;  261,450
302,384;  299,207;  296,600;  238,450
302,470;  291,787;  280,600;  280,450
302,556;  305,147;  331,600;  294,450
302,642;  295,547;  286,600;  226,450
302,729;  294,047;  300,600;  270,450
302,815;  315,757;  299,600;  269,450
302,901;  292,267;  267,600;  294,450
302,987;  306,807;  299,600;  293,450
303,073;  299,697;  284,600;  283,450
303,159;  291,567;  295,600;  305,450
303,245;  282,487;  279,600;  256,450
303,331;  284,797;  281,600;  277,450
303,417;  296,357;  283,600;  328,450
303,503;  307,757;  331,600;  293,450
303,590;  287,737;  289,600;  272,450
303,676;  299,777;  289,600;  302,450
303,762;  288,567;  288,600;  270,450
303,848;  306,627;  295,600;  316,450
303,934;  305,727;  323,600;  286,450
304,020;  300,957;  304,600;  288,450
304,106;  309,937;  318,600;  287,450
304,192;  292,467;  265,600;  275,450
304,278;  301,347;  297,600;  304,450
304,364;  323,987;  327,600;  303,450
304,450;  301,667;  283,600;  288,450
304,535;  300,037;  304,600;  295,450
304,621;  303,017;  302,600;  309,450
304,707;  305,567;  294,600;  296,450
304,793;  318,337;  323,600;  295,450
304,879;  307,177;  305,600;  292,450
304,965;  311,157;  297,600;  273,450
305,051;  308,477;  310,600;  260,450
305,137;  315,717;  266,600;  314,450
305,223;  289,677;  299,600;  301,450
305,309;  312,227;  306,600;  306,450
305,394;  310,047;  266,600;  282,450
305,480;  298,757;  298,600;  266,450
305,566;  303,097;  280,600;  297,450
305,652;  315,407;  297,600;  308,450
305,738;  348,527;  332,600;  315,450
305,824;  311,827;  280,600;  303,450
305,909;  321,007;  338,600;  301,450
305,995;  286,267;  267,600;  268,450
306,081;  342,817;  368,600;  334,450
306,167;  305,827;  287,600;  311,450
306,252;  324,967;  319,600;  311,450
306,338;  330,977;  332,600;  332,450
306,424;  305,587;  315,600;  260,450
306,510;  316,647;  355,600;  305,450
306,595;  321,417;  303,600;  335,450
306,681;  313,817;  321,600;  287,450
306,767;  305,937;  313,600;  286,450
306,852;  329,767;  337,600;  314,450
306,938;  323,537;  291,600;  336,450
307,024;  299,717;  281,600;  321,450
307,109;  330,997;  340,600;  327,450
307,195;  307,187;  318,600;  337,450
307,281;  313,467;  322,600;  315,450
307,366;  311,197;  319,600;  284,450
307,452;  313,687;  292,600;  312,450
307,537;  293,737;  289,600;  281,450
307,623;  291,947;  272,600;  282,450
307,709;  307,887;  302,600;  325,450
307,794;  287,837;  293,600;  258,450
307,880;  317,477;  321,600;  320,450
307,965;  304,907;  278,600;  274,450
308,051;  293,377;  263,600;  305,450
308,136;  293,677;  314,600;  260,450
308,222;  298,057;  306,600;  301,450
308,307;  293,617;  286,600;  312,450
308,393;  295,077;  294,600;  285,450
308,478;  313,397;  321,600;  308,450
308,564;  289,507;  280,600;  276,450
308,649;  304,867;  308,600;  304,450
308,735;  300,047;  320,600;  278,450
308,820;  315,957;  328,600;  304,450
308,906;  292,917;  298,600;  272,450
308,991;  333,447;  339,600;  314,450
309,076;  314,767;  335,600;  290,450
309,162;  276,387;  265,600;  245,450
309,247;  305,297;  297,600;  288,450
309,333;  291,657;  284,600;  286,450
309,418;  297,327;  281,600;  297,450
309,503;  299,047;  301,600;  289,450
309,589;  300,177;  308,600;  306,450
309,674;  284,677;  274,600;  268,450
309,759;  301,907;  291,600;  289,450
309,845;  305,997;  290,600;  312,450
309,930;  304,717;  292,600;  288,450
310,015;  271,777;  257,600;  251,450
310,101;  315,827;  282,600;  296,450
310,186;  281,697;  267,600;  298,450
310,271;  298,617;  298,600;  286,450
310,357;  292,157;  265,600;  286,450
310,442;  302,187;  288,600;  263,450
310,527;  297,987;  288,600;  306,450
310,612;  276,467;  291,600;  253,450
310,698;  315,087;  282,600;  275,450
310,783;  298,287;  288,600;  279,450
310,868;  292,717;  313,600;  263,450
310,953;  282,027;  269,600;  293,450
311,038;  308,327;  289,600;  286,450
311,124;  292,487;  296,600;  277,450
311,209;  278,027;  293,600;  291,450
311,294;  308,337;  306,600;  303,450
311,379;  276,907;  254,600;  258,450
311,464;  298,997;  302,600;  291,450
311,549;  281,047;  277,600;  294,450
311,634;  286,237;  284,600;  275,450
311,719;  318,097;  308,600;  309,450
311,805;  290,397;  308,600;  275,450
311,890;  297,667;  308,600;  261,450
311,975;  289,847;  262,600;  283,450
312,060;  304,957;  321,600;  289,450
312,145;  286,377;  277,600;  262,450
312,230;  314,687;  313,600;  285,450
312,315;  328,827;  325,600;  262,450
312,400;  405,647;  404,600;  303,450
312,485; 1694,307; 1668,600;  292,450
312,570; 1227,617; 1232,600;  239,450
312,655;  344,277;  342,600;  282,450
312,740;  327,627;  312,600;  289,450
312,825;  337,037;  329,600;  301,450
312,910;  351,877;  343,600;  278,450
312,995;  446,567;  443,600;  325,450
313,080; 2132,637; 2082,600;  265,450
313,165; 2162,587; 2149,600;  310,450
313,250;  359,997;  308,600;  276,450
313,335;  324,167;  321,600;  307,450
313,419;  280,727;  269,600;  242,450
313,504;  325,287;  304,600;  286,450
313,589;  303,597;  272,600;  277,450
313,674;  313,547;  303,600;  290,450
313,759;  283,907;  274,600;  273,450
313,844;  299,727;  276,600;  289,450
313,929;  297,977;  295,600;  285,450
314,014;  316,927;  307,600;  320,450
314,098;  300,037;  321,600;  305,450
314,183;  268,187;  258,600;  260,450
314,268;  294,907;  295,600;  290,450
314,353;  306,557;  287,600;  290,450
314,438;  309,227;  287,600;  294,450
314,522;  310,287;  272,600;  306,450
314,607;  304,697;  282,600;  302,450
314,692;  302,437;  291,600;  301,450
314,777;  290,457;  291,600;  279,450
314,861;  275,437;  293,600;  263,450
314,946;  312,437;  321,600;  303,450
315,031;  291,707;  284,600;  267,450
315,115;  305,787;  309,600;  318,450
315,200;  313,427;  301,600;  285,450
315,285;  290,937;  278,600;  275,450
315,369;  284,587;  282,600;  273,450
315,454;  310,307;  291,600;  305,450
315,539;  306,417;  280,600;  283,450
315,623;  305,097;  308,600;  292,450
315,708;  334,467;  326,600;  315,450
315,793;  296,747;  318,600;  308,450
315,877;  300,577;  311,600;  282,450
315,962;  288,007;  263,600;  283,450
316,046;  317,107;  327,600;  298,450
316,131;  333,717;  334,600;  313,450
316,216;  308,517;  308,600;  288,450
316,300;  298,737;  307,600;  281,450
316,385;  321,277;  301,600;  319,450
316,469;  327,277;  335,600;  331,450
316,554;  295,547;  290,600;  288,450
316,638;  297,267;  297,600;  286,450
316,723;  292,237;  285,600;  262,450
316,807;  294,777;  268,600;  273,450
316,892;  286,527;  293,600;  275,450
316,976;  312,727;  298,600;  318,450
317,061;  307,027;  282,600;  309,450
317,145;  320,947;  316,600;  315,450
317,230;  318,737;  309,600;  304,450
317,314;  274,877;  264,600;  259,450
317,398;  309,677;  280,600;  323,450
317,483;  286,227;  312,600;  266,450
317,567;  311,957;  299,600;  317,450
317,652;  283,447;  280,600;  244,450
317,736;  306,217;  277,600;  329,450
317,820;  328,717;  343,600;  287,450
317,905;  304,957;  311,600;  289,450
317,989;  295,757;  303,600;  312,450
318,073;  292,747;  281,600;  280,450
318,158;  284,927;  262,600;  284,450
318,242;  296,777;  297,600;  269,450
318,326;  281,357;  265,600;  260,450
318,411;  293,907;  263,600;  290,450
318,495;  284,787;  274,600;  286,450
318,579;  283,737;  264,600;  266,450
318,664;  277,927;  284,600;  242,450
318,748;  300,817;  290,600;  266,450
318,832;  286,127;  261,600;  263,450
318,916;  271,887;  272,600;  263,450
319,001;  295,757;  287,600;  299,450
319,085;  291,227;  265,600;  265,450
319,169;  291,127;  304,600;  285,450
319,253;  286,187;  270,600;  271,450
319,337;  300,927;  311,600;  265,450
319,422;  312,897;  329,600;  325,450
319,506;  282,647;  282,600;  264,450
319,590;  305,707;  303,600;  320,450
319,674;  296,477;  326,600;  301,450
319,758;  293,627;  277,600;  278,450
319,842;  304,657;  280,600;  290,450
319,926;  292,247;  268,600;  280,450
320,010;  265,447;  267,600;  226,450
320,095;  280,677;  284,600;  274,450
320,179;  274,847;  270,600;  263,450
320,263;  283,637;  259,600;  265,450
320,347;  268,667;  217,600;  260,450
320,431;  271,117;  267,600;  245,450
320,515;  293,877;  297,600;  267,450
320,599;  266,887;  274,600;  263,450
320,683;  302,547;  295,600;  306,450
320,767;  261,117;  246,600;  230,450
320,851;  281,897;  247,600;  282,450
320,935;  313,097;  294,600;  317,450
321,019;  284,857;  258,600;  297,450
321,103;  274,887;  319,600;  295,450
321,187;  271,657;  272,600;  303,450
321,271;  290,447;  299,600;  251,450
321,355;  281,317;  290,600;  264,450
321,439;  298,457;  282,600;  306,450
321,523;  278,737;  285,600;  287,450
321,606;  282,897;  289,600;  301,450
321,690;  284,367;  285,600;  261,450
321,774;  288,427;  284,600;  286,450
321,858;  287,717;  300,600;  283,450
321,942;  293,277;  298,600;  291,450
322,026;  281,377;  296,600;  280,450
322,110;  289,187;  286,600;  264,450
322,194;  297,287;  279,600;  293,450
322,277;  282,467;  287,600;  257,450
322,361;  274,517;  260,600;  265,450
322,445;  289,117;  285,600;  252,450
322,529;  294,087;  298,600;  264,450
322,613;  291,957;  273,600;  262,450
322,696;  267,567;  287,600;  266,450
322,780;  280,367;  303,600;  256,450
322,864;  269,737;  310,600;  288,450
322,948;  293,307;  262,600;  270,450
323,031;  274,957;  268,600;  269,450
323,115;  284,367;  299,600;  257,450
323,199;  295,387;  291,600;  268,450
323,282;  304,857;  284,600;  302,450
323,366;  286,987;  280,600;  307,450
323,450;  275,597;  241,600;  266,450
323,533;  312,847;  309,600;  308,450
323,617;  265,407;  243,600;  238,450
323,701;  281,157;  239,600;  257,450
323,784;  287,767;  305,600;  289,450
323,868;  295,287;  302,600;  285,450
323,952;  289,527;  276,600;  272,450
324,035;  304,387;  295,600;  297,450
324,119;  295,867;  285,600;  262,450
324,202;  289,107;  280,600;  298,450
324,286;  287,327;  236,600;  286,450
324,370;  292,837;  291,600;  274,450
324,453;  298,617;  287,600;  296,450
324,537;  293,147;  280,600;  281,450
324,620;  285,457;  295,600;  303,450
324,704;  269,957;  281,600;  261,450
324,787;  290,917;  295,600;  267,450
324,871;  308,627;  293,600;  314,450
324,954;  313,347;  299,600;  318,450
325,038;  304,317;  299,600;  301,450
325,121;  307,697;  302,600;  316,450
325,205;  289,337;  273,600;  277,450
325,288;  280,627;  280,600;  269,450
325,371;  296,127;  275,600;  285,450
325,455;  312,177;  289,600;  302,450
325,538;  286,617;  292,600;  308,450
325,622;  319,117;  302,600;  306,450
325,705;  293,557;  303,600;  300,450
325,788;  312,027;  297,600;  298,450
325,872;  295,057;  264,600;  279,450
325,955;  320,117;  305,600;  300,450
326,039;  304,877;  290,600;  313,450
326,122;  309,017;  277,600;  288,450
326,205;  307,547;  320,600;  299,450
326,289;  313,907;  313,600;  313,450
326,372;  297,997;  310,600;  288,450
326,455;  325,477;  322,600;  318,450
326,538;  312,537;  312,600;  306,450
326,622;  319,147;  285,600;  313,450
326,705;  283,967;  272,600;  290,450
326,788;  318,507;  288,600;  324,450
326,871;  313,977;  286,600;  281,450
326,955;  311,927;  293,600;  333,450
327,038;  306,487;  304,600;  284,450
327,121;  300,347;  313,600;  303,450
327,204;  310,347;  315,600;  298,450
327,288;  328,957;  326,600;  328,450
327,371;  292,647;  286,600;  294,450
327,454;  311,447;  303,600;  316,450
327,537;  297,157;  272,600;  285,450
327,620;  324,987;  327,600;  309,450
327,703;  308,797;  308,600;  314,450
327,786;  307,557;  320,600;  319,450
327,870;  321,567;  321,600;  308,450
327,953;  301,677;  307,600;  296,450
328,036;  296,407;  291,600;  264,450
328,119;  319,007;  345,600;  299,450
328,202;  301,017;  305,600;  287,450
328,285;  325,227;  336,600;  306,450
328,368;  316,067;  335,600;  328,450
328,451;  316,187;  325,600;  334,450
328,534;  301,827;  292,600;  283,450
328,617;  303,487;  290,600;  281,450
328,700;  323,407;  325,600;  327,450
328,783;  320,057;  319,600;  292,450
328,866;  314,677;  294,600;  287,450
328,949;  320,347;  341,600;  325,450
329,032;  293,477;  292,600;  308,450
329,115;  290,407;  288,600;  279,450
329,198;  278,937;  265,600;  282,450
329,281;  296,577;  310,600;  277,450
329,364;  313,937;  300,600;  330,450
329,447;  305,537;  303,600;  300,450
329,530;  324,827;  321,600;  317,450
329,613;  301,437;  302,600;  289,450
329,696;  327,237;  308,600;  298,450
329,778;  312,177;  313,600;  293,450
329,861;  294,667;  309,600;  288,450
329,944;  323,837;  326,600;  272,450
330,027;  312,697;  312,600;  296,450
330,110;  306,697;  305,600;  313,450
330,193;  295,557;  284,600;  300,450
330,275;  307,967;  290,600;  298,450
330,358;  293,517;  278,600;  298,450
330,441;  320,757;  307,600;  326,450
330,524;  306,997;  322,600;  298,450
330,607;  300,447;  281,600;  304,450
330,689;  307,687;  278,600;  321,450
330,772;  305,817;  290,600;  305,450
330,855;  322,937;  329,600;  287,450
330,938;  321,087;  332,600;  319,450
331,020;  315,867;  298,600;  292,450
331,103;  295,957;  280,600;  310,450
331,186;  303,567;  298,600;  286,450
331,268;  293,757;  280,600;  269,450
331,351;  313,907;  285,600;  311,450
331,434;  310,797;  296,600;  316,450
331,516;  310,677;  313,600;  329,450
331,599;  298,287;  266,600;  255,450
331,682;  312,007;  301,600;  302,450
331,764;  289,137;  308,600;  261,450
331,847;  312,697;  311,600;  310,450
331,929;  287,627;  286,600;  278,450
332,012;  307,457;  296,600;  295,450
332,095;  322,527;  348,600;  317,450
332,177;  322,497;  353,600;  324,450
332,260;  326,637;  349,600;  345,450
332,342;  305,887;  310,600;  291,450
332,425;  308,407;  301,600;  293,450
332,507;  307,987;  239,600;  316,450
332,590;  287,477;  274,600;  280,450
332,672;  288,147;  310,600;  264,450
332,755;  303,397;  320,600;  233,450
332,837;  305,267;  286,600;  274,450
332,920;  311,097;  315,600;  298,450
333,002;  323,897;  308,600;  306,450
333,085;  308,787;  308,600;  298,450
333,167;  298,147;  275,600;  266,450
333,249;  294,247;  276,600;  277,450
333,332;  289,837;  275,600;  279,450
333,414;  299,697;  317,600;  295,450
333,497;  300,187;  315,600;  305,450
333,579;  302,097;  303,600;  307,450
333,661;  317,247;  319,600;  286,450
333,744;  291,537;  265,600;  243,450
333,826;  311,217;  302,600;  293,450
333,908;  316,347;  329,600;  332,450
333,991;  303,687;  253,600;  285,450
334,073;  472,077;  503,600;  321,450
334,155;  353,637;  360,600;  289,450
334,238;  321,147;  314,600;  286,450
334,320;  294,707;  296,600;  270,450
334,402;  302,207;  298,600;  292,450
334,485;  301,757;  305,600;  282,450
334,567;  298,987;  301,600;  262,450
334,649;  276,627;  266,600;  273,450
334,731;  309,147;  287,600;  285,450
334,813;  315,797;  346,600;  352,450
334,896;  287,297;  296,600;  287,450
334,978;  301,787;  302,600;  283,450
335,060;  305,967;  306,600;  296,450
335,142;  295,627;  265,600;  306,450
335,224;  306,927;  308,600;  310,450
335,307;  294,757;  277,600;  275,450
335,389;  309,337;  302,600;  315,450
335,471;  303,027;  300,600;  282,450
335,553;  318,307;  308,600;  317,450
335,635;  311,537;  303,600;  277,450
335,717;  296,257;  280,600;  305,450
335,799;  321,187;  314,600;  325,450
335,881;  278,297;  271,600;  251,450
335,963;  289,767;  283,600;  278,450
336,045;  291,777;  281,600;  276,450
336,128;  273,987;  281,600;  268,450
336,210;  289,027;  284,600;  250,450
336,292;  294,347;  301,600;  283,450
336,374;  300,717;  307,600;  287,450
336,456;  284,437;  290,600;  258,450
336,538;  303,147;  288,600;  304,450
336,620;  309,287;  325,600;  305,450
336,702;  287,087;  308,600;  309,450
336,783;  301,817;  299,600;  289,450
336,865;  304,647;  302,600;  303,450
336,947;  304,847;  299,600;  302,450
337,029;  281,417;  252,600;  262,450
337,111;  313,787;  309,600;  328,450
337,193;  283,827;  257,600;  250,450
337,275;  310,337;  302,600;  291,450
337,357;  319,007;  299,600;  305,450
337,439;  304,497;  299,600;  277,450
337,521;  273,227;  274,600;  268,450
337,602;  296,577;  280,600;  295,450
337,684;  309,677;  302,600;  341,450
337,766;  307,167;  301,600;  288,450
337,848;  295,367;  309,600;  318,450
337,930;  295,607;  300,600;  300,450
338,012;  296,637;  257,600;  295,450
338,093;  314,587;  302,600;  312,450
338,175;  315,187;  308,600;  308,450
338,257;  303,067;  296,600;  243,450
338,339;  297,617;  303,600;  248,450
338,420;  304,827;  304,600;  329,450
338,502;  298,627;  292,600;  292,450
338,584;  282,027;  261,600;  270,450
338,666;  303,497;  293,600;  301,450
338,747;  329,337;  337,600;  324,450
338,829;  304,737;  301,600;  300,450
338,911;  294,337;  281,600;  284,450
338,992;  286,577;  292,600;  299,450
339,074;  302,817;  300,600;  274,450
339,156;  297,977;  308,600;  302,450
339,237;  327,467;  344,600;  320,450
339,319;  293,227;  298,600;  284,450
339,400;  306,987;  301,600;  313,450
339,482;  277,317;  291,600;  259,450
339,564;  313,697;  337,600;  315,450
339,645;  303,207;  283,600;  306,450
339,727;  286,167;  284,600;  278,450
339,808;  317,187;  306,600;  320,450
339,890;  298,717;  285,600;  277,450
339,971;  309,877;  318,600;  299,450
340,053;  332,687;  327,600;  339,450
340,134;  293,187;  287,600;  283,450
340,216;  310,977;  294,600;  302,450
340,297;  299,177;  330,600;  312,450
340,379;  311,467;  344,600;  301,450
340,460;  304,147;  275,600;  299,450
340,542;  292,127;  307,600;  263,450
340,623;  310,787;  306,600;  325,450
340,705;  291,457;  306,600;  262,450
340,786;  291,217;  299,600;  288,450
340,868;  304,257;  299,600;  313,450
340,949;  279,577;  279,600;  269,450
341,030;  323,627;  330,600;  312,450
341,112;  278,227;  256,600;  269,450
341,193;  269,987;  287,600;  248,450
341,274;  320,567;  325,600;  312,450
341,356;  318,827;  329,600;  300,450
341,437;  297,537;  292,600;  284,450
341,518;  310,127;  313,600;  322,450
341,600;  318,747;  321,600;  324,450
341,681;  322,507;  316,600;  308,450
341,762;  324,767;  316,600;  314,450
341,844;  285,577;  271,600;  280,450
341,925;  306,467;  304,600;  329,450
342,006;  317,317;  314,600;  322,450
342,087;  288,107;  291,600;  308,450
342,169;  302,557;  301,600;  297,450
342,250;  284,327;  303,600;  250,450
342,331;  292,507;  291,600;  268,450
342,412;  309,277;  304,600;  283,450
342,493;  285,807;  279,600;  266,450
342,575;  323,267;  298,600;  308,450
342,656;  318,707;  343,600;  319,450
342,737;  329,597;  331,600;  316,450
342,818;  304,727;  319,600;  291,450
342,899;  312,367;  309,600;  295,450
342,980;  302,607;  306,600;  302,450
343,061;  300,057;  297,600;  279,450
343,143;  316,797;  299,600;  310,450
343,224;  303,247;  297,600;  287,450
343,305;  295,617;  294,600;  273,450
343,386;  299,517;  290,600;  295,450
343,467;  300,467;  306,600;  295,450
343,548;  304,077;  307,600;  271,450
343,629;  312,827;  348,600;  311,450
343,710;  322,437;  354,600;  330,450
343,791;  319,687;  296,600;  295,450
343,872;  295,687;  314,600;  271,450
343,953;  317,787;  323,600;  303,450
344,034;  318,487;  307,600;  307,450
344,115;  305,417;  298,600;  295,450
344,196;  297,677;  295,600;  273,450
344,277;  293,577;  282,600;  299,450
344,358;  305,677;  279,600;  295,450
344,439;  289,687;  281,600;  287,450
344,520;  291,007;  310,600;  269,450
344,601;  310,497;  319,600;  332,450
344,681;  298,957;  312,600;  315,450
344,762;  279,187;  275,600;  257,450
344,843;  277,507;  300,600;  255,450
344,924;  304,887;  252,600;  290,450
345,005;  287,917;  269,600;  286,450
345,086;  305,077;  301,600;  289,450
345,167;  289,857;  299,600;  282,450
345,247;  322,157;  305,600;  327,450
345,328;  318,677;  287,600;  317,450
345,409;  305,387;  280,600;  307,450
345,490;  308,807;  314,600;  310,450
345,571;  304,307;  293,600;  295,450
345,651;  280,617;  260,600;  335,450
345,732;  303,227;  303,600;  286,450
345,813;  311,837;  285,600;  291,450
345,894;  281,787;  254,600;  279,450
345,974;  306,867;  346,600;  305,450
346,055;  294,427;  275,600;  291,450
346,136;  303,597;  311,600;  287,450
346,216;  321,747;  312,600;  345,450
346,297;  301,367;  294,600;  289,450
346,378;  290,797;  270,600;  300,450
346,458;  306,867;  299,600;  271,450
346,539;  300,817;  295,600;  315,450
346,620;  309,967;  301,600;  312,450
346,700;  281,367;  302,600;  258,450
346,781;  282,847;  252,600;  260,450
346,861;  300,287;  283,600;  301,450
346,942;  300,787;  273,600;  319,450
347,023;  312,757;  302,600;  306,450
347,103;  293,777;  296,600;  287,450
347,184;  293,207;  321,600;  294,450
347,264;  290,327;  289,600;  310,450
347,345;  289,127;  280,600;  281,450
347,425;  287,687;  270,600;  295,450
347,506;  284,297;  283,600;  283,450
347,586;  287,267;  258,600;  283,450
347,667;  303,427;  316,600;  299,450
347,747;  308,017;  307,600;  304,450
347,828;  293,327;  308,600;  271,450
347,908;  308,287;  307,600;  307,450
347,988;  292,977;  296,600;  251,450
348,069;  310,097;  295,600;  305,450
348,149;  306,877;  303,600;  276,450
348,230;  307,237;  297,600;  301,450
348,310;  284,387;  291,600;  301,450
348,390;  285,467;  285,600;  267,450
348,471;  300,537;  299,600;  270,450
348,551;  288,867;  289,600;  264,450
348,632;  286,157;  288,600;  278,450
348,712;  287,517;  281,600;  278,450
348,792;  329,147;  352,600;  333,450
348,873;  278,507;  293,600;  249,450
348,953;  286,157;  278,600;  330,450
349,033;  295,987;  285,600;  311,450
349,113;  280,907;  278,600;  277,450
349,194;  302,517;  289,600;  310,450
349,274;  300,827;  300,600;  310,450
349,354;  299,537;  288,600;  285,450
349,434;  300,197;  300,600;  299,450
349,515;  314,797;  310,600;  320,450
349,595;  304,577;  308,600;  287,450
349,675;  307,597;  289,600;  299,450
349,755;  294,717;  325,600;  280,450
349,835;  303,287;  305,600;  309,450
349,916;  296,867;  298,600;  284,450
349,996;  285,657;  287,600;  253,450
350,076;  310,487;  286,600;  315,450
350,156;  280,647;  272,600;  280,450
350,236;  313,097;  292,600;  316,450
350,316;  294,557;  296,600;  282,450
350,396;  305,547;  283,600;  306,450
350,476;  299,677;  308,600;  275,450
350,556;  295,137;  275,600;  290,450
350,637;  320,167;  331,600;  312,450
350,717;  287,837;  269,600;  287,450
350,797;  303,197;  307,600;  305,450
350,877;  291,017;  305,600;  323,450
350,957;  295,777;  285,600;  291,450
351,037;  299,917;  303,600;  298,450
351,117;  298,647;  304,600;  275,450
351,197;  302,957;  331,600;  302,450
351,277;  295,587;  328,600;  277,450
351,357;  312,697;  322,600;  293,450
351,437;  301,997;  299,600;  283,450
351,516;  314,657;  337,600;  283,450
351,596;  293,487;  291,600;  329,450
351,676;  288,927;  269,600;  284,450
351,756;  327,977;  308,600;  326,450
351,836;  314,097;  285,600;  329,450
351,916;  300,097;  324,600;  287,450
351,996;  303,257;  313,600;  318,450
352,076;  301,767;  288,600;  302,450
352,156;  312,177;  317,600;  297,450
352,235;  298,937;  310,600;  304,450
352,315;  309,837;  313,600;  339,450
352,395;  306,957;  306,600;  277,450
352,475;  316,977;  339,600;  287,450
352,555;  330,637;  362,600;  344,450
352,634;  321,087;  304,600;  344,450
352,714;  303,777;  310,600;  263,450
352,794;  354,597;  334,600;  364,450
352,874;  314,907;  335,600;  339,450
352,953;  336,217;  336,600;  318,450
353,033;  318,347;  317,600;  344,450
353,113;  334,047;  360,600;  341,450
353,193;  323,057;  314,600;  334,450
353,272;  329,547;  295,600;  329,450
353,352;  311,327;  303,600;  275,450
353,432;  344,947;  324,600;  344,450
353,511;  330,897;  323,600;  302,450
353,591;  360,487;  352,600;  347,450
353,671;  334,427;  335,600;  320,450
353,750;  332,297;  311,600;  311,450
353,830;  312,767;  319,600;  296,450
353,909;  342,237;  335,600;  341,450
353,989;  317,397;  309,600;  297,450
354,069;  316,047;  315,600;  318,450
354,148;  335,077;  341,600;  323,450
354,228;  313,577;  315,600;  300,450
354,307;  327,597;  313,600;  312,450
354,387;  319,407;  316,600;  326,450
354,466;  312,957;  319,600;  299,450
354,546;  333,277;  314,600;  347,450
354,625;  317,377;  341,600;  324,450
354,705;  318,797;  272,600;  330,450
354,784;  317,367;  301,600;  303,450
354,864;  315,857;  309,600;  305,450
354,943;  333,557;  340,600;  339,450
355,023;  306,957;  288,600;  314,450
355,102;  362,637;  337,600;  333,450
355,181;  315,367;  328,600;  329,450
355,261;  339,927;  314,600;  344,450
355,340;  304,477;  301,600;  307,450
355,420;  344,577;  325,600;  327,450
355,499;  320,057;  294,600;  326,450
355,578;  315,497;  321,600;  324,450
355,658;  335,607;  310,600;  346,450
355,737;  323,097;  312,600;  309,450
355,816;  322,337;  330,600;  333,450
355,896;  318,917;  300,600;  301,450
355,975;  306,117;  308,600;  294,450
356,054;  310,807;  316,600;  285,450
356,133;  287,467;  287,600;  314,450
356,213;  322,957;  318,600;  292,450
356,292;  306,817;  297,600;  276,450
356,371;  312,267;  331,600;  297,450
356,451;  323,797;  345,600;  294,450
356,530;  346,307;  357,600;  319,450
356,609;  312,917;  306,600;  286,450
356,688;  317,917;  314,600;  298,450
356,767;  306,107;  299,600;  290,450
356,846;  324,657;  346,600;  295,450
356,926;  340,187;  342,600;  361,450
357,005;  319,127;  332,600;  321,450
357,084;  303,097;  318,600;  321,450
357,163;  316,467;  335,600;  341,450
357,242;  319,227;  286,600;  337,450
357,321;  309,957;  322,600;  296,450
357,400;  320,047;  305,600;  310,450
357,479;  317,677;  336,600;  292,450
357,559;  323,817;  325,600;  314,450
357,638;  300,127;  312,600;  292,450
357,717;  313,537;  322,600;  304,450
357,796;  328,467;  348,600;  323,450
357,875;  309,967;  333,600;  316,450
357,954;  311,777;  312,600;  285,450
358,033;  319,087;  311,600;  278,450
358,112;  325,797;  302,600;  300,450
358,191;  313,517;  313,600;  289,450
358,270;  292,807;  266,600;  300,450
358,349;  318,967;  291,600;  324,450
358,428;  323,457;  321,600;  335,450
358,507;  325,777;  348,600;  306,450
358,585;  317,677;  318,600;  326,450
358,664;  331,187;  318,600;  340,450
358,743;  325,717;  293,600;  304,450
358,822;  335,797;  354,600;  329,450
358,901;  307,477;  275,600;  303,450
358,980;  307,297;  308,600;  299,450
359,059;  328,517;  326,600;  326,450
359,138;  328,097;  308,600;  324,450
359,216;  324,007;  320,600;  314,450
359,295;  305,857;  325,600;  329,450
359,374;  333,197;  335,600;  301,450
359,453;  322,177;  340,600;  315,450
359,532;  306,487;  307,600;  310,450
359,610;  320,357;  315,600;  307,450
359,689;  333,057;  324,600;  330,450
359,768;  312,557;  305,600;  294,450
359,847;  304,067;  313,600;  287,450
359,925;  306,877;  303,600;  315,450
360,004;  300,337;  295,600;  289,450
360,083;  317,047;  299,600;  319,450
360,161;  304,817;  314,600;  285,450
360,240;  288,567;  272,600;  289,450
360,319;  317,247;  323,600;  309,450
360,397;  324,987;  313,600;  320,450
360,476;  320,757;  291,600;  325,450
360,555;  346,817;  334,600;  340,450
360,633;  303,847;  287,600;  300,450
360,712;  306,577;  299,600;  264,450
360,790;  331,517;  314,600;  320,450
360,869;  310,077;  297,600;  296,450
360,948;  320,507;  278,600;  334,450
361,026;  301,497;  321,600;  276,450
361,105;  309,857;  305,600;  290,450
361,183;  322,707;  294,600;  286,450
361,262;  302,227;  300,600;  280,450
361,340;  306,537;  318,600;  297,450
361,419;  290,157;  282,600;  250,450
361,497;  345,647;  300,600;  335,450
361,576;  316,887;  292,600;  315,450
361,654;  343,697;  361,600;  322,450
361,733;  291,517;  320,600;  300,450
361,811;  326,697;  320,600;  311,450
361,890;  290,957;  267,600;  289,450
361,968;  313,407;  269,600;  303,450
362,046;  337,277;  334,600;  321,450
362,125;  340,587;  353,600;  326,450
362,203;  315,007;  297,600;  287,450
362,282;  331,467;  319,600;  338,450
362,360;  321,237;  296,600;  307,450
362,438;  320,037;  310,600;  302,450
362,517;  360,257;  346,600;  347,450
362,595;  340,787;  312,600;  351,450
362,673;  334,827;  323,600;  317,450
362,752;  328,117;  349,600;  327,450
362,830;  341,217;  338,600;  349,450
362,908;  322,657;  310,600;  307,450
362,986;  332,407;  335,600;  315,450
363,065;  326,837;  313,600;  344,450
363,143;  358,907;  354,600;  367,450
363,221;  317,337;  302,600;  288,450
363,299;  311,967;  304,600;  309,450
363,378;  327,677;  297,600;  335,450
363,456;  302,927;  286,600;  316,450
363,534;  328,747;  318,600;  323,450
363,612;  332,937;  320,600;  312,450
363,690;  342,047;  319,600;  344,450
363,769;  354,297;  340,600;  345,450
363,847;  333,527;  308,600;  356,450
363,925;  308,717;  282,600;  303,450
364,003;  354,307;  343,600;  348,450
364,081;  343,587;  323,600;  338,450
364,159;  337,107;  325,600;  330,450
364,237;  346,587;  351,600;  326,450
364,315;  328,587;  306,600;  311,450
364,393;  360,447;  363,600;  340,450
364,471;  344,997;  345,600;  315,450
364,549;  355,367;  344,600;  337,450
364,627;  355,027;  339,600;  321,450
364,705;  361,947;  344,600;  299,450
364,783;  430,997;  417,600;  294,450
364,861; 1012,627; 1050,600;  311,450
364,939; 3616,947; 3619,600;  304,450
365,017;  778,527;  723,600;  298,450
365,095;  370,627;  341,600;  327,450
365,173;  378,347;  398,600;  335,450
365,251;  379,757;  356,600;  345,450
365,329;  527,337;  527,600;  344,450
365,407; 1182,697; 1155,600;  315,450
365,485;  462,987;  464,600;  377,450
365,563;  360,427;  354,600;  339,450
365,641;  341,607;  327,600;  316,450
365,719;  342,487;  361,600;  314,450
365,796;  342,937;  329,600;  309,450
365,874;  356,227;  329,600;  354,450
365,952;  324,817;  334,600;  297,450
366,030;  343,437;  311,600;  318,450
366,108;  360,617;  336,600;  325,450
366,185;  630,647;  644,600;  330,450
366,263;  890,477;  880,600;  333,450
366,341;  378,517;  362,600;  310,450
366,419;  340,147;  335,600;  319,450
366,496;  347,387;  347,600;  336,450
366,574;  331,777;  299,600;  321,450
366,652;  353,357;  381,600;  324,450
366,730;  370,187;  336,600;  375,450
366,807;  333,697;  317,600;  335,450
366,885;  327,997;  315,600;  340,450
366,963;  333,687;  305,600;  332,450
367,040;  351,707;  348,600;  348,450
367,118;  326,867;  315,600;  299,450
367,196;  342,667;  322,600;  355,450
367,273;  337,647;  331,600;  352,450
367,351;  332,787;  314,600;  320,450
367,428;  360,037;  351,600;  360,450
367,506;  335,387;  361,600;  305,450
367,584;  360,777;  352,600;  377,450
367,661;  342,107;  329,600;  332,450
367,739;  331,517;  328,600;  328,450
367,816;  327,367;  343,600;  292,450
367,894;  344,367;  368,600;  312,450
367,971;  335,477;  309,600;  328,450
368,049;  358,177;  376,600;  316,450
368,126;  318,417;  329,600;  318,450
368,204;  355,467;  333,600;  342,450
368,281;  351,957;  375,600;  360,450
368,359;  350,727;  352,600;  332,450
368,436;  344,637;  349,600;  336,450
368,514;  349,157;  344,600;  337,450
368,591;  343,757;  344,600;  347,450
368,668;  345,937;  375,600;  336,450
368,746;  360,047;  387,600;  352,450
368,823;  342,127;  338,600;  380,450
368,901;  339,677;  325,600;  328,450
368,978;  358,557;  329,600;  311,450
369,055;  347,277;  339,600;  332,450
369,133;  368,827;  371,600;  352,450
369,210;  342,537;  328,600;  366,450
369,287;  371,767;  364,600;  366,450
369,365;  371,687;  380,600;  367,450
369,442;  348,207;  347,600;  350,450
369,519;  311,007;  321,600;  298,450
369,596;  370,437;  359,600;  339,450
369,674;  335,917;  327,600;  283,450
369,751;  367,287;  337,600;  371,450
369,828;  349,227;  351,600;  337,450
369,905;  355,727;  358,600;  377,450
369,983;  332,117;  305,600;  327,450
370,060;  334,147;  323,600;  301,450
370,137;  374,927;  394,600;  401,450
370,214;  336,337;  321,600;  374,450
370,291;  350,607;  350,600;  340,450
370,368;  347,457;  356,600;  383,450
370,446;  337,067;  301,600;  350,450
370,523;  330,547;  360,600;  316,450
370,600;  353,637;  368,600;  319,450
370,677;  345,427;  348,600;  332,450
370,754;  341,087;  343,600;  331,450
370,831;  343,727;  352,600;  343,450
370,908;  373,617;  347,600;  374,450
370,985;  324,467;  333,600;  281,450
371,062;  347,597;  341,600;  344,450
371,139;  358,567;  361,600;  363,450
371,216;  357,977;  351,600;  347,450
371,293;  351,387;  329,600;  359,450
371,370;  330,247;  322,600;  314,450
371,447;  355,697;  346,600;  342,450
371,524;  376,487;  346,600;  357,450
371,601;  371,287;  371,600;  341,450
371,678;  374,747;  350,600;  355,450
371,755;  348,297;  366,600;  335,450
371,832;  374,697;  370,600;  375,450
371,909;  342,797;  370,600;  318,450
371,986;  382,457;  371,600;  394,450
372,063;  344,627;  324,600;  329,450
372,140;  353,847;  342,600;  359,450
372,216;  363,117;  356,600;  331,450
372,293;  343,117;  310,600;  347,450
372,370;  372,757;  375,600;  357,450
372,447;  358,117;  329,600;  372,450
372,524;  349,847;  350,600;  371,450
372,601;  354,847;  369,600;  321,450
372,677;  340,677;  344,600;  333,450
372,754;  353,647;  355,600;  360,450
372,831;  355,967;  356,600;  354,450
372,908;  369,227;  380,600;  385,450
372,984;  352,847;  362,600;  356,450
373,061;  341,237;  317,600;  334,450
373,138;  353,277;  367,600;  366,450
373,215;  344,397;  329,600;  317,450
373,291;  350,417;  347,600;  356,450
373,368;  358,187;  378,600;  362,450
373,445;  348,427;  374,600;  345,450
373,521;  351,567;  355,600;  341,450
373,598;  338,587;  354,600;  314,450
373,675;  334,877;  335,600;  358,450
373,751;  347,227;  336,600;  357,450
373,828;  340,987;  338,600;  346,450
373,904;  388,997;  409,600;  394,450
373,981;  333,447;  340,600;  337,450
374,057;  353,727;  343,600;  341,450
374,134;  332,537;  339,600;  316,450
374,211;  350,827;  330,600;  339,450
374,287;  337,027;  336,600;  339,450
374,364;  365,257;  379,600;  370,450
374,440;  321,477;  279,600;  284,450
374,517;  362,417;  367,600;  360,450
374,593;  325,787;  326,600;  299,450
374,670;  340,257;  335,600;  311,450
374,746;  351,287;  347,600;  339,450
374,823;  370,407;  389,600;  364,450
374,899;  368,607;  353,600;  394,450
374,975;  339,317;  336,600;  333,450
375,052;  322,027;  327,600;  327,450
375,128;  324,727;  281,600;  339,450
375,205;  355,687;  346,600;  378,450
375,281;  333,977;  294,600;  331,450
375,357;  364,527;  371,600;  352,450
375,434;  334,257;  313,600;  355,450
375,510;  350,257;  354,600;  323,450
375,586;  348,537;  356,600;  351,450
375,663;  324,037;  314,600;  307,450
375,739;  357,697;  355,600;  380,450
375,815;  349,217;  340,600;  317,450
375,892;  348,157;  340,600;  341,450
375,968;  339,497;  313,600;  325,450
376,044;  339,677;  370,600;  333,450
376,120;  337,167;  311,600;  364,450
376,197;  350,067;  361,600;  328,450
376,273;  339,487;  347,600;  334,450
376,349;  380,477;  386,600;  368,450
376,425;  367,167;  378,600;  336,450
376,501;  346,797;  329,600;  348,450
376,578;  357,067;  332,600;  426,450
376,654;  381,327;  393,600;  365,450
376,730;  361,477;  340,600;  352,450
376,806;  374,357;  346,600;  382,450
376,882;  374,527;  376,600;  332,450
376,958;  374,527;  367,600;  347,450
377,034;  320,557;  320,600;  296,450
377,111;  369,227;  393,600;  358,450
377,187;  390,977;  410,600;  383,450
377,263;  384,267;  397,600;  372,450
377,339;  345,177;  341,600;  319,450
377,415;  363,617;  339,600;  356,450
377,491;  346,497;  362,600;  325,450
377,567;  361,917;  340,600;  369,450
377,643;  380,677;  376,600;  362,450
377,719;  366,757;  368,600;  351,450
377,795;  350,047;  313,600;  350,450
377,871;  368,427;  366,600;  386,450
377,947;  353,107;  343,600;  352,450
378,023;  348,967;  355,600;  339,450
378,099;  349,977;  325,600;  367,450
378,174;  372,747;  364,600;  365,450
378,250;  362,247;  372,600;  389,450
378,326;  368,777;  369,600;  382,450
378,402;  358,977;  359,600;  343,450
378,478;  359,787;  340,600;  355,450
378,554;  374,397;  347,600;  374,450
378,630;  364,467;  369,600;  336,450
378,706;  360,717;  364,600;  321,450
378,781;  394,957;  387,600;  385,450
378,857;  363,187;  359,600;  347,450
378,933;  361,807;  359,600;  335,450
379,009;  352,167;  346,600;  342,450
379,085;  391,837;  419,600;  384,450
379,160;  377,827;  381,600;  366,450
379,236;  377,937;  359,600;  361,450
379,312;  362,437;  337,600;  365,450
379,387;  355,357;  372,600;  349,450
379,463;  364,907;  355,600;  344,450
379,539;  370,967;  408,600;  387,450
379,615;  357,667;  337,600;  364,450
379,690;  397,317;  420,600;  410,450
379,766;  378,987;  389,600;  370,450
379,842;  388,277;  385,600;  366,450
379,917;  388,417;  389,600;  369,450
379,993;  374,137;  370,600;  358,450
380,068;  361,807;  341,600;  349,450
380,144;  383,517;  398,600;  393,450
380,220;  383,737;  388,600;  391,450
380,295;  356,167;  356,600;  356,450
380,371;  359,407;  358,600;  361,450
380,446;  379,017;  418,600;  376,450
380,522;  350,777;  340,600;  360,450
380,597;  360,847;  377,600;  349,450
380,673;  392,567;  395,600;  384,450
380,748;  358,587;  338,600;  344,450
380,824;  367,757;  364,600;  362,450
380,899;  387,587;  371,600;  364,450
380,975;  367,277;  388,600;  402,450
381,050;  349,947;  363,600;  336,450
381,126;  372,687;  370,600;  362,450
381,201;  403,687;  407,600;  405,450
381,277;  374,187;  367,600;  390,450
381,352;  388,907;  389,600;  377,450
381,427;  376,197;  359,600;  370,450
381,503;  381,507;  394,600;  377,450
381,578;  361,037;  363,600;  360,450
381,653;  373,187;  381,600;  387,450
381,729;  358,887;  346,600;  360,450
381,804;  369,757;  373,600;  375,450
381,879;  384,037;  380,600;  366,450
381,955;  356,477;  343,600;  346,450
382,030;  353,607;  346,600;  339,450
382,105;  374,057;  372,600;  372,450
382,181;  367,967;  382,600;  367,450
382,256;  375,157;  373,600;  383,450
382,331;  371,027;  371,600;  375,450
382,406;  351,747;  368,600;  343,450
382,482;  361,047;  371,600;  380,450
382,557;  364,317;  362,600;  335,450
382,632;  372,107;  364,600;  365,450
382,707;  363,567;  393,600;  349,450
382,782;  367,597;  395,600;  385,450
382,857;  360,507;  373,600;  356,450
382,933;  354,357;  354,600;  349,450
383,008;  344,697;  325,600;  336,450
383,083;  377,527;  382,600;  360,450
383,158;  379,477;  375,600;  368,450
383,233;  362,407;  368,600;  362,450
383,308;  361,207;  360,600;  326,450
383,383;  391,157;  394,600;  390,450
383,458;  360,717;  344,600;  340,450
383,533;  346,587;  331,600;  334,450
383,608;  391,947;  367,600;  381,450
383,683;  385,147;  381,600;  367,450
383,758;  377,657;  398,600;  353,450
383,833;  369,107;  343,600;  350,450
383,908;  344,127;  321,600;  367,450
383,983;  345,887;  365,600;  328,450
384,058;  354,897;  340,600;  383,450
384,133;  366,507;  372,600;  376,450
384,208;  378,047;  395,600;  375,450
384,283;  353,397;  362,600;  321,450
384,358;  383,897;  392,600;  390,450
384,433;  357,157;  347,600;  341,450
384,508;  370,397;  339,600;  338,450
384,583;  371,987;  337,600;  355,450
384,658;  368,817;  352,600;  366,450
384,732;  338,777;  329,600;  319,450
384,807;  367,297;  347,600;  366,450
384,882;  374,147;  391,600;  349,450
384,957;  373,437;  348,600;  345,450
385,032;  377,897;  383,600;  373,450
385,106;  370,387;  342,600;  369,450
385,181;  355,157;  353,600;  359,450
385,256;  364,947;  367,600;  336,450
385,331;  373,867;  375,600;  364,450
385,405;  375,327;  383,600;  400,450
385,480;  366,637;  362,600;  372,450
385,555;  401,317;  402,600;  399,450
385,630;  391,767;  369,600;  370,450
385,704;  377,067;  353,600;  390,450
385,779;  364,437;  363,600;  368,450
385,854;  369,477;  364,600;  380,450
385,928;  363,117;  348,600;  365,450
386,003;  403,027;  390,600;  397,450
386,078;  372,767;  374,600;  369,450
386,152;  400,477;  391,600;  412,450
386,227;  357,927;  347,600;  354,450
386,301;  378,277;  389,600;  348,450
386,376;  353,057;  352,600;  346,450
386,450;  379,307;  356,600;  374,450
386,525;  376,827;  357,600;  376,450
386,600;  386,917;  367,600;  381,450
386,674;  366,037;  374,600;  364,450
386,749;  380,977;  395,600;  359,450
386,823;  380,777;  363,600;  377,450
386,898;  380,147;  386,600;  374,450
386,972;  388,317;  383,600;  354,450
387,047;  373,487;  368,600;  364,450
387,121;  383,707;  375,600;  363,450
387,195;  359,187;  359,600;  352,450
387,270;  388,617;  384,600;  385,450
387,344;  404,607;  429,600;  393,450
387,419;  390,277;  367,600;  412,450
387,493;  377,187;  371,600;  377,450
387,567;  360,467;  351,600;  336,450
387,642;  401,787;  383,600;  402,450
387,716;  374,827;  368,600;  378,450
387,790;  368,737;  337,600;  366,450
387,865;  370,317;  351,600;  364,450
387,939;  400,187;  405,600;  406,450
388,013;  388,597;  377,600;  417,450
388,088;  370,517;  361,600;  363,450
388,162;  369,987;  366,600;  355,450
388,236;  374,697;  381,600;  416,450
388,310;  365,807;  368,600;  361,450
388,385;  399,587;  324,600;  400,450
388,459;  377,397;  362,600;  379,450
388,533;  359,987;  378,600;  365,450
388,607;  367,397;  374,600;  378,450
388,682;  373,647;  369,600;  394,450
388,756;  358,397;  375,600;  378,450
388,830;  389,867;  378,600;  413,450
388,904;  381,727;  382,600;  382,450
388,978;  368,257;  368,600;  361,450
389,052;  375,887;  390,600;  343,450
389,126;  373,447;  353,600;  387,450
389,200;  374,357;  376,600;  362,450
389,275;  370,807;  382,600;  389,450
389,349;  373,957;  405,600;  380,450
389,423;  367,867;  380,600;  369,450
389,497;  378,667;  426,600;  377,450
389,571;  366,257;  391,600;  375,450
389,645;  380,737;  378,600;  388,450
389,719;  372,357;  384,600;  388,450
389,793;  343,837;  341,600;  322,450
389,867;  404,077;  410,600;  386,450
389,941;  376,627;  367,600;  369,450
390,015;  365,677;  348,600;  372,450
390,089;  360,697;  369,600;  344,450
390,163;  373,357;  368,600;  375,450
390,237;  376,947;  356,600;  361,450
390,310;  380,547;  393,600;  366,450
390,384;  380,987;  383,600;  344,450
390,458;  404,847;  414,600;  432,450
390,532;  387,897;  401,600;  395,450
390,606;  367,337;  361,600;  328,450
390,680;  370,397;  354,600;  373,450
390,754;  365,157;  373,600;  342,450
390,827;  391,317;  382,600;  388,450
390,901;  394,257;  362,600;  377,450
390,975;  372,807;  366,600;  368,450
391,049;  368,347;  374,600;  392,450
391,123;  363,717;  342,600;  367,450
391,196;  368,237;  344,600;  368,450
391,270;  376,887;  372,600;  366,450
391,344;  363,267;  384,600;  374,450
391,418;  371,377;  368,600;  366,450
391,491;  359,877;  362,600;  365,450
391,565;  364,407;  341,600;  346,450
391,639;  396,217;  379,600;  381,450
391,712;  383,937;  373,600;  385,450
391,786;  382,667;  401,600;  429,450
391,860;  371,027;  354,600;  354,450
391,933;  372,807;  366,600;  333,450
392,007;  377,027;  393,600;  364,450
392,081;  401,177;  404,600;  366,450
392,154;  380,247;  366,600;  394,450
392,228;  394,127;  392,600;  387,450
392,301;  381,967;  366,600;  402,450
392,375;  389,057;  394,600;  406,450
392,448;  383,597;  397,600;  375,450
392,522;  377,437;  382,600;  383,450
392,595;  377,667;  389,600;  365,450
392,669;  379,427;  386,600;  367,450
392,742;  395,977;  378,600;  401,450
392,816;  399,747;  376,600;  383,450
392,889;  396,137;  392,600;  401,450
392,963;  407,587;  400,600;  382,450
393,036;  386,137;  366,600;  401,450
393,110;  396,307;  388,600;  376,450
393,183;  406,857;  407,600;  399,450
393,257;  419,297;  437,600;  408,450
393,330;  366,477;  373,600;  391,450
393,403;  391,957;  410,600;  372,450
393,477;  360,467;  347,600;  364,450
393,550;  391,667;  413,600;  387,450
393,623;  389,497;  374,600;  402,450
393,697;  407,927;  404,600;  411,450
393,770;  382,637;  386,600;  364,450
393,843;  405,357;  419,600;  412,450
393,917;  397,627;  400,600;  407,450
393,990;  407,947;  378,600;  395,450
394,063;  390,447;  403,600;  375,450
394,136;  392,047;  390,600;  390,450
394,210;  396,287;  393,600;  380,450
394,283;  405,707;  385,600;  395,450
394,356;  400,977;  410,600;  373,450
394,429;  398,537;  399,600;  357,450
394,502;  384,507;  404,600;  373,450
394,576;  414,567;  416,600;  404,450
394,649;  383,247;  376,600;  381,450
394,722;  404,247;  390,600;  390,450
394,795;  412,367;  413,600;  406,450
394,868;  384,697;  369,600;  390,450
394,941;  375,547;  371,600;  368,450
395,014;  419,117;  419,600;  416,450
395,088;  401,487;  404,600;  391,450
395,161;  397,547;  402,600;  399,450
395,234;  407,637;  390,600;  397,450
395,307;  406,177;  413,600;  388,450
395,380;  387,227;  393,600;  392,450
395,453;  436,797;  439,600;  425,450
395,526;  411,697;  430,600;  407,450
395,599;  432,027;  422,600;  432,450
395,672;  395,467;  378,600;  408,450
395,745;  419,797;  400,600;  390,450
395,818;  376,117;  385,600;  376,450
395,891;  388,697;  408,600;  379,450
395,964;  414,847;  398,600;  436,450
396,036;  387,267;  400,600;  390,450
396,109;  396,317;  399,600;  381,450
396,182;  398,227;  392,600;  382,450
396,255;  401,547;  417,600;  383,450
396,328;  408,697;  412,600;  432,450
396,401;  372,057;  363,600;  381,450
396,474;  380,927;  399,600;  360,450
396,547;  402,077;  411,600;  417,450
396,619;  394,047;  384,600;  393,450
396,692;  408,867;  371,600;  354,450
396,765;  373,497;  375,600;  376,450
396,838;  389,377;  367,600;  390,450
396,911;  372,487;  363,600;  352,450
396,983;  392,757;  385,600;  396,450
397,056;  372,797;  375,600;  367,450
397,129;  385,657;  369,600;  368,450
397,201;  389,597;  413,600;  395,450
397,274;  391,347;  379,600;  382,450
397,347;  363,597;  364,600;  378,450
397,420;  384,247;  373,600;  379,450
397,492;  388,807;  404,600;  380,450
397,565;  374,027;  372,600;  365,450
397,637;  367,607;  371,600;  361,450
397,710;  353,037;  349,600;  341,450
397,783;  414,637;  444,600;  401,450
397,855;  344,497;  363,600;  346,450
397,928;  366,997;  381,600;  330,450
398,000;  395,607;  369,600;  384,450
398,073;  384,957;  376,600;  372,450
398,146;  378,057;  365,600;  358,450
398,218;  391,107;  417,600;  363,450
398,291;  389,657;  398,600;  385,450
398,363;  381,537;  370,600;  358,450
398,436;  370,907;  369,600;  360,450
398,508;  379,797;  378,600;  369,450
398,581;  378,177;  368,600;  367,450
398,653;  376,317;  318,600;  382,450
398,726;  383,007;  376,600;  371,450
398,798;  385,897;  390,600;  376,450
398,870;  394,307;  374,600;  374,450
398,943;  363,877;  371,600;  357,450
399,015;  366,467;  362,600;  383,450
399,088;  389,897;  377,600;  373,450
399,160;  368,427;  370,600;  348,450
399,232;  349,217;  332,600;  349,450
399,305;  367,947;  379,600;  362,450
399,377;  377,787;  350,600;  343,450
399,449;  382,947;  398,600;  388,450
399,522;  423,917;  442,600;  416,450
399,594;  363,907;  359,600;  346,450
399,666;  385,177;  393,600;  361,450
399,738;  374,337;  378,600;  375,450
399,811;  374,597;  370,600;  388,450
399,883;  392,417;  392,600;  378,450
399,955;  387,057;  429,600;  331,450
400,027;  347,017;  342,600;  364,450
400,100;  407,037;  402,600;  427,450
400,172;  349,417;  360,600;  354,450
400,244;  376,587;  369,600;  361,450
400,316;  393,247;  396,600;  381,450
400,388;  387,337;  408,600;  368,450
400,460;  363,287;  350,600;  359,450
400,532;  351,467;  329,600;  337,450
400,605;  380,947;  378,600;  368,450
400,677;  403,227;  389,600;  380,450
400,749;  393,807;  403,600;  406,450
400,821;  385,087;  384,600;  385,450
400,893;  376,627;  364,600;  384,450
400,965;  392,517;  390,600;  380,450
401,037;  387,007;  376,600;  402,450
401,109;  371,047;  363,600;  365,450
401,181;  379,977;  383,600;  398,450

