p
Integration time [ms]:   0,150
Averaging Nr. [scans]: 1
Smoothing Nr. [pixels]: 0
Data measured with spectrometer [name]: 7416147SP
Wave   ;Sample   ;Dark     ;Reference
[nm]   ;[counts] ;[counts] ;[counts] 

230,218;  283,525;  284,600;  274,450
230,311;  298,525;  306,600;  296,450
230,404;  293,525;  298,600;  326,450
230,497;  314,525;  295,600;  309,450
230,591;  320,525;  342,600;  328,450
230,684;  313,525;  317,600;  333,450
230,777;  288,525;  318,600;  312,450
230,870;  324,525;  330,600;  321,450
230,964;  294,525;  321,600;  306,450
231,057;  349,525;  306,600;  332,450
231,150;  318,525;  320,600;  304,450
231,243;  317,525;  310,600;  310,450
231,336;  335,525;  334,600;  326,450
231,430;  304,525;  320,600;  279,450
231,523;  298,525;  346,600;  304,450
231,616;  292,525;  297,600;  290,450
231,709;  346,525;  328,600;  315,450
231,802;  349,525;  280,600;  295,450
231,895;  327,525;  293,600;  313,450
231,988;  330,525;  312,600;  320,450
232,082;  315,525;  316,600;  281,450
232,175;  302,525;  289,600;  279,450
232,268;  302,525;  319,600;  301,450
232,361;  321,525;  288,600;  264,450
232,454;  322,525;  297,600;  320,450
232,547;  315,525;  333,600;  272,450
232,640;  308,525;  314,600;  287,450
232,733;  338,525;  297,600;  300,450
232,826;  292,525;  303,600;  270,450
232,919;  334,525;  318,600;  294,450
233,012;  325,525;  322,600;  292,450
233,105;  315,525;  318,600;  283,450
233,199;  332,525;  324,600;  298,450
233,292;  297,525;  293,600;  307,450
233,385;  272,525;  262,600;  233,450
233,478;  336,525;  302,600;  272,450
233,571;  297,525;  314,600;  293,450
233,664;  317,525;  341,600;  283,450
233,757;  260,525;  254,600;  231,450
233,850;  297,525;  272,600;  248,450
233,943;  289,525;  298,600;  272,450
234,035;  326,525;  318,600;  292,450
234,128;  284,525;  282,600;  265,450
234,221;  299,525;  310,600;  293,450
234,314;  302,525;  333,600;  318,450
234,407;  340,525;  338,600;  286,450
234,500;  290,525;  286,600;  280,450
234,593;  299,525;  280,600;  290,450
234,686;  311,525;  276,600;  256,450
234,779;  298,525;  270,600;  275,450
234,872;  293,525;  276,600;  261,450
234,965;  288,525;  298,600;  286,450
235,058;  269,525;  269,600;  263,450
235,150;  297,525;  311,600;  286,450
235,243;  316,525;  280,600;  311,450
235,336;  302,525;  317,600;  296,450
235,429;  285,525;  258,600;  241,450
235,522;  330,525;  352,600;  293,450
235,615;  254,525;  309,600;  253,450
235,707;  267,525;  289,600;  277,450
235,800;  294,525;  302,600;  268,450
235,893;  302,525;  328,600;  262,450
235,986;  286,525;  305,600;  312,450
236,079;  308,525;  310,600;  308,450
236,171;  267,525;  272,600;  270,450
236,264;  340,525;  310,600;  282,450
236,357;  302,525;  289,600;  297,450
236,450;  302,525;  314,600;  308,450
236,542;  259,525;  286,600;  258,450
236,635;  311,525;  319,600;  287,450
236,728;  285,525;  276,600;  273,450
236,821;  310,525;  270,600;  268,450
236,913;  272,525;  326,600;  268,450
237,006;  289,525;  300,600;  257,450
237,099;  277,525;  289,600;  271,450
237,191;  306,525;  345,600;  288,450
237,284;  290,525;  256,600;  282,450
237,377;  305,525;  294,600;  312,450
237,470;  302,525;  291,600;  256,450
237,562;  288,525;  266,600;  261,450
237,655;  322,525;  342,600;  294,450
237,747;  316,525;  325,600;  263,450
237,840;  306,525;  292,600;  302,450
237,933;  262,525;  327,600;  284,450
238,025;  315,525;  338,600;  306,450
238,118;  300,525;  306,600;  287,450
238,211;  283,525;  282,600;  227,450
238,303;  300,525;  277,600;  273,450
238,396;  276,525;  289,600;  270,450
238,488;  311,525;  300,600;  281,450
238,581;  289,525;  306,600;  235,450
238,673;  279,525;  304,600;  273,450
238,766;  281,525;  268,600;  282,450
238,859;  271,525;  282,600;  277,450
238,951;  289,525;  295,600;  280,450
239,044;  290,525;  270,600;  283,450
239,136;  305,525;  269,600;  284,450
239,229;  300,525;  297,600;  291,450
239,321;  273,525;  262,600;  248,450
239,414;  290,525;  289,600;  288,450
239,506;  302,525;  280,600;  267,450
239,599;  312,525;  352,600;  292,450
239,691;  289,525;  306,600;  269,450
239,784;  328,525;  296,600;  288,450
239,876;  336,525;  280,600;  288,450
239,969;  330,525;  287,600;  281,450
240,061;  253,525;  277,600;  262,450
240,153;  284,525;  260,600;  278,450
240,246;  299,525;  295,600;  292,450
240,338;  349,525;  309,600;  324,450
240,431;  262,525;  277,600;  282,450
240,523;  294,525;  300,600;  237,450
240,615;  295,525;  293,600;  321,450
240,708;  305,525;  355,600;  292,450
240,800;  292,525;  302,600;  288,450
240,893;  292,525;  274,600;  261,450
240,985;  304,525;  321,600;  270,450
241,077;  253,525;  268,600;  262,450
241,170;  304,525;  313,600;  286,450
241,262;  307,525;  284,600;  284,450
241,354;  237,525;  246,600;  244,450
241,447;  289,525;  286,600;  271,450
241,539;  280,525;  295,600;  247,450
241,631;  315,525;  312,600;  279,450
241,724;  273,525;  261,600;  246,450
241,816;  260,525;  258,600;  264,450
241,908;  298,525;  278,600;  263,450
242,000;  293,525;  283,600;  263,450
242,093;  271,525;  303,600;  261,450
242,185;  278,525;  306,600;  269,450
242,277;  283,525;  282,600;  242,450
242,369;  286,525;  278,600;  269,450
242,462;  280,525;  271,600;  247,450
242,554;  303,525;  253,600;  266,450
242,646;  312,525;  282,600;  270,450
242,738;  277,525;  320,600;  281,450
242,830;  268,525;  292,600;  230,450
242,923;  293,525;  309,600;  303,450
243,015;  279,525;  288,600;  269,450
243,107;  267,525;  280,600;  253,450
243,199;  286,525;  309,600;  300,450
243,291;  285,525;  319,600;  253,450
243,383;  210,525;  240,600;  273,450
243,476;  267,525;  257,600;  282,450
243,568;  285,525;  293,600;  284,450
243,660;  256,525;  260,600;  268,450
243,752;  290,525;  305,600;  270,450
243,844;  318,525;  299,600;  284,450
243,936;  279,525;  316,600;  299,450
244,028;  318,525;  332,600;  290,450
244,120;  293,525;  267,600;  230,450
244,212;  294,525;  298,600;  289,450
244,305;  252,525;  267,600;  270,450
244,397;  335,525;  315,600;  267,450
244,489;  308,525;  303,600;  285,450
244,581;  314,525;  301,600;  279,450
244,673;  288,525;  286,600;  252,450
244,765;  279,525;  277,600;  293,450
244,857;  333,525;  303,600;  251,450
244,949;  307,525;  305,600;  282,450
245,041;  252,525;  250,600;  223,450
245,133;  285,525;  294,600;  292,450
245,225;  289,525;  258,600;  248,450
245,317;  296,525;  253,600;  267,450
245,409;  299,525;  282,600;  263,450
245,501;  287,525;  286,600;  265,450
245,593;  326,525;  328,600;  278,450
245,685;  296,525;  330,600;  286,450
245,776;  295,525;  298,600;  267,450
245,868;  261,525;  308,600;  263,450
245,960;  273,525;  242,600;  252,450
246,052;  314,525;  291,600;  307,450
246,144;  321,525;  282,600;  285,450
246,236;  295,525;  296,600;  257,450
246,328;  304,525;  285,600;  287,450
246,420;  320,525;  282,600;  270,450
246,512;  332,525;  303,600;  295,450
246,604;  292,525;  280,600;  278,450
246,695;  289,525;  275,600;  268,450
246,787;  297,525;  288,600;  299,450
246,879;  289,525;  296,600;  275,450
246,971;  277,525;  305,600;  285,450
247,063;  297,525;  281,600;  253,450
247,155;  282,525;  295,600;  240,450
247,246;  308,525;  305,600;  285,450
247,338;  302,525;  297,600;  287,450
247,430;  296,525;  298,600;  312,450
247,522;  316,525;  294,600;  294,450
247,613;  308,525;  287,600;  278,450
247,705;  301,525;  302,600;  286,450
247,797;  326,525;  322,600;  301,450
247,889;  333,525;  294,600;  286,450
247,980;  311,525;  318,600;  273,450
248,072;  319,525;  315,600;  275,450
248,164;  346,525;  368,600;  297,450
248,256;  300,525;  280,600;  302,450
248,347;  324,525;  312,600;  275,450
248,439;  295,525;  302,600;  260,450
248,531;  317,525;  301,600;  297,450
248,622;  326,525;  315,600;  318,450
248,714;  271,525;  303,600;  257,450
248,806;  271,525;  301,600;  287,450
248,897;  319,525;  266,600;  290,450
248,989;  250,525;  260,600;  246,450
249,081;  298,525;  291,600;  305,450
249,172;  305,525;  289,600;  264,450
249,264;  283,525;  310,600;  303,450
249,356;  289,525;  274,600;  253,450
249,447;  292,525;  287,600;  283,450
249,539;  306,525;  289,600;  288,450
249,630;  296,525;  296,600;  286,450
249,722;  323,525;  310,600;  305,450
249,813;  316,525;  302,600;  256,450
249,905;  307,525;  319,600;  291,450
249,997;  244,525;  270,600;  248,450
250,088;  287,525;  295,600;  285,450
250,180;  317,525;  280,600;  288,450
250,271;  289,525;  296,600;  268,450
250,363;  309,525;  329,600;  307,450
250,454;  255,525;  268,600;  238,450
250,546;  299,525;  271,600;  272,450
250,637;  308,525;  285,600;  242,450
250,729;  294,525;  267,600;  250,450
250,820;  324,525;  306,600;  297,450
250,912;  299,525;  299,600;  243,450
251,003;  283,525;  285,600;  296,450
251,095;  287,525;  296,600;  273,450
251,186;  288,525;  269,600;  253,450
251,277;  299,525;  276,600;  290,450
251,369;  305,525;  295,600;  275,450
251,460;  303,525;  272,600;  272,450
251,552;  311,525;  293,600;  292,450
251,643;  299,525;  292,600;  276,450
251,735;  277,525;  303,600;  241,450
251,826;  336,525;  313,600;  259,450
251,917;  333,525;  325,600;  258,450
252,009;  317,525;  338,600;  254,450
252,100;  321,525;  343,600;  266,450
252,191;  332,525;  337,600;  260,450
252,283;  331,525;  328,600;  299,450
252,374;  336,525;  372,600;  289,450
252,465;  460,525;  390,600;  301,450
252,557;  372,525;  393,600;  251,450
252,648;  395,525;  378,600;  258,450
252,739;  447,525;  397,600;  267,450
252,831;  437,525;  439,600;  250,450
252,922;  441,525;  440,600;  266,450
253,013;  535,525;  520,600;  241,450
253,104;  581,525;  576,600;  255,450
253,196;  705,525;  712,600;  265,450
253,287;  846,525;  807,600;  289,450
253,378; 1272,525; 1233,600;  257,450
253,469; 4197,525; 4083,600;  246,450
253,561;23146,525;23239,600;  253,450
253,652;42460,523;42949,602;  272,450
253,743; 5756,525; 5893,600;  210,450
253,834;  629,525;  622,600;  260,450
253,926;  520,525;  531,600;  249,450
254,017;  506,525;  459,600;  280,450
254,108;  435,525;  528,600;  290,450
254,199;  395,525;  418,600;  277,450
254,290;  444,525;  380,600;  290,450
254,381;  423,525;  429,600;  276,450
254,472;  414,525;  437,600;  250,450
254,564;  413,525;  411,600;  327,450
254,655;  377,525;  392,600;  304,450
254,746;  321,525;  345,600;  225,450
254,837;  383,525;  372,600;  282,450
254,928;  320,525;  368,600;  247,450
255,019;  370,525;  375,600;  281,450
255,110;  334,525;  357,600;  302,450
255,201;  354,525;  318,600;  284,450
255,292;  367,525;  381,600;  271,450
255,383;  315,525;  347,600;  265,450
255,474;  338,525;  329,600;  248,450
255,566;  346,525;  366,600;  271,450
255,657;  346,525;  350,600;  306,450
255,748;  311,525;  292,600;  235,450
255,839;  313,525;  331,600;  282,450
255,930;  306,525;  292,600;  302,450
256,021;  320,525;  336,600;  297,450
256,112;  324,525;  296,600;  257,450
256,203;  361,525;  339,600;  315,450
256,294;  320,525;  321,600;  265,450
256,384;  302,525;  279,600;  261,450
256,475;  307,525;  289,600;  284,450
256,566;  275,525;  297,600;  274,450
256,657;  280,525;  291,600;  267,450
256,748;  293,525;  302,600;  280,450
256,839;  292,525;  281,600;  274,450
256,930;  283,525;  278,600;  260,450
257,021;  325,525;  328,600;  283,450
257,112;  307,525;  311,600;  327,450
257,203;  288,525;  268,600;  240,450
257,294;  259,525;  276,600;  257,450
257,385;  299,525;  284,600;  272,450
257,475;  290,525;  277,600;  255,450
257,566;  295,525;  313,600;  267,450
257,657;  307,525;  339,600;  264,450
257,748;  279,525;  283,600;  252,450
257,839;  257,525;  319,600;  306,450
257,930;  282,525;  276,600;  275,450
258,020;  273,525;  278,600;  281,450
258,111;  263,525;  285,600;  256,450
258,202;  289,525;  309,600;  258,450
258,293;  306,525;  267,600;  255,450
258,384;  340,525;  329,600;  295,450
258,474;  288,525;  296,600;  244,450
258,565;  261,525;  250,600;  252,450
258,656;  308,525;  306,600;  257,450
258,747;  248,525;  293,600;  255,450
258,837;  261,525;  266,600;  231,450
258,928;  277,525;  247,600;  280,450
259,019;  290,525;  272,600;  264,450
259,109;  277,525;  264,600;  254,450
259,200;  293,525;  292,600;  291,450
259,291;  280,525;  246,600;  297,450
259,381;  262,525;  309,600;  264,450
259,472;  284,525;  299,600;  272,450
259,563;  306,525;  307,600;  273,450
259,653;  286,525;  281,600;  247,450
259,744;  247,525;  280,600;  260,450
259,835;  296,525;  284,600;  274,450
259,925;  307,525;  257,600;  276,450
260,016;  300,525;  303,600;  282,450
260,107;  260,525;  264,600;  265,450
260,197;  281,525;  279,600;  258,450
260,288;  273,525;  263,600;  273,450
260,378;  257,525;  274,600;  244,450
260,469;  311,525;  299,600;  273,450
260,560;  257,525;  267,600;  276,450
260,650;  302,525;  269,600;  265,450
260,741;  282,525;  279,600;  256,450
260,831;  270,525;  246,600;  276,450
260,922;  275,525;  271,600;  258,450
261,012;  292,525;  271,600;  256,450
261,103;  294,525;  320,600;  294,450
261,193;  318,525;  317,600;  320,450
261,284;  276,525;  256,600;  254,450
261,374;  289,525;  295,600;  253,450
261,465;  311,525;  321,600;  304,450
261,555;  296,525;  271,600;  275,450
261,646;  310,525;  290,600;  300,450
261,736;  257,525;  265,600;  287,450
261,827;  308,525;  293,600;  256,450
261,917;  331,525;  294,600;  344,450
262,007;  269,525;  269,600;  289,450
262,098;  266,525;  334,600;  256,450
262,188;  328,525;  316,600;  305,450
262,279;  303,525;  290,600;  292,450
262,369;  295,525;  276,600;  282,450
262,459;  272,525;  262,600;  260,450
262,550;  298,525;  314,600;  290,450
262,640;  289,525;  261,600;  274,450
262,731;  307,525;  302,600;  298,450
262,821;  317,525;  287,600;  323,450
262,911;  287,525;  312,600;  268,450
263,002;  268,525;  278,600;  271,450
263,092;  302,525;  292,600;  309,450
263,182;  295,525;  280,600;  257,450
263,273;  298,525;  277,600;  261,450
263,363;  309,525;  309,600;  284,450
263,453;  275,525;  266,600;  259,450
263,543;  298,525;  289,600;  326,450
263,634;  321,525;  263,600;  262,450
263,724;  284,525;  278,600;  276,450
263,814;  286,525;  304,600;  288,450
263,904;  291,525;  270,600;  267,450
263,995;  322,525;  306,600;  321,450
264,085;  308,525;  301,600;  259,450
264,175;  281,525;  284,600;  306,450
264,265;  308,525;  305,600;  298,450
264,356;  279,525;  260,600;  289,450
264,446;  298,525;  296,600;  298,450
264,536;  299,525;  270,600;  297,450
264,626;  308,525;  315,600;  295,450
264,716;  277,525;  330,600;  277,450
264,806;  317,525;  327,600;  306,450
264,897;  268,525;  255,600;  273,450
264,987;  281,525;  310,600;  286,450
265,077;  317,525;  297,600;  285,450
265,167;  374,525;  394,600;  346,450
265,257;  332,525;  333,600;  273,450
265,347;  349,525;  331,600;  286,450
265,437;  338,525;  304,600;  289,450
265,527;  334,525;  314,600;  292,450
265,617;  278,525;  292,600;  265,450
265,708;  305,525;  330,600;  308,450
265,798;  310,525;  315,600;  301,450
265,888;  300,525;  275,600;  270,450
265,978;  324,525;  274,600;  242,450
266,068;  308,525;  291,600;  316,450
266,158;  296,525;  288,600;  254,450
266,248;  272,525;  305,600;  248,450
266,338;  321,525;  307,600;  293,450
266,428;  277,525;  294,600;  259,450
266,518;  285,525;  321,600;  320,450
266,608;  305,525;  245,600;  273,450
266,698;  285,525;  284,600;  256,450
266,788;  284,525;  263,600;  248,450
266,878;  334,525;  350,600;  317,450
266,968;  290,525;  282,600;  304,450
267,058;  298,525;  280,600;  292,450
267,147;  292,525;  327,600;  300,450
267,237;  303,525;  293,600;  276,450
267,327;  306,525;  292,600;  276,450
267,417;  318,525;  320,600;  264,450
267,507;  276,525;  297,600;  294,450
267,597;  277,525;  273,600;  272,450
267,687;  285,525;  268,600;  286,450
267,777;  286,525;  267,600;  270,450
267,867;  324,525;  321,600;  296,450
267,956;  299,525;  282,600;  257,450
268,046;  292,525;  306,600;  298,450
268,136;  298,525;  265,600;  291,450
268,226;  254,525;  269,600;  261,450
268,316;  267,525;  266,600;  262,450
268,406;  271,525;  268,600;  338,450
268,495;  291,525;  278,600;  259,450
268,585;  306,525;  304,600;  263,450
268,675;  254,525;  296,600;  260,450
268,765;  311,525;  296,600;  287,450
268,854;  269,525;  277,600;  291,450
268,944;  305,525;  288,600;  299,450
269,034;  292,525;  313,600;  279,450
269,124;  288,525;  283,600;  286,450
269,213;  287,525;  277,600;  255,450
269,303;  290,525;  290,600;  247,450
269,393;  308,525;  265,600;  307,450
269,483;  297,525;  338,600;  273,450
269,572;  273,525;  295,600;  243,450
269,662;  301,525;  286,600;  301,450
269,752;  316,525;  320,600;  299,450
269,841;  267,525;  270,600;  247,450
269,931;  296,525;  264,600;  276,450
270,021;  308,525;  299,600;  295,450
270,110;  296,525;  286,600;  268,450
270,200;  283,525;  329,600;  299,450
270,289;  273,525;  258,600;  279,450
270,379;  307,525;  315,600;  282,450
270,469;  319,525;  297,600;  273,450
270,558;  307,525;  300,600;  286,450
270,648;  263,525;  266,600;  245,450
270,737;  266,525;  288,600;  271,450
270,827;  297,525;  279,600;  263,450
270,916;  297,525;  266,600;  280,450
271,006;  317,525;  287,600;  287,450
271,096;  303,525;  312,600;  334,450
271,185;  280,525;  307,600;  299,450
271,275;  292,525;  305,600;  279,450
271,364;  302,525;  300,600;  286,450
271,454;  308,525;  301,600;  273,450
271,543;  289,525;  295,600;  279,450
271,633;  307,525;  293,600;  257,450
271,722;  303,525;  240,600;  257,450
271,812;  276,525;  255,600;  299,450
271,901;  319,525;  276,600;  286,450
271,990;  294,525;  293,600;  267,450
272,080;  269,525;  282,600;  284,450
272,169;  285,525;  339,600;  288,450
272,259;  307,525;  319,600;  275,450
272,348;  309,525;  291,600;  305,450
272,438;  286,525;  302,600;  301,450
272,527;  300,525;  288,600;  290,450
272,616;  310,525;  295,600;  300,450
272,706;  299,525;  319,600;  313,450
272,795;  328,525;  285,600;  290,450
272,884;  328,525;  302,600;  294,450
272,974;  325,525;  281,600;  279,450
273,063;  320,525;  361,600;  290,450
273,152;  303,525;  299,600;  296,450
273,242;  323,525;  296,600;  311,450
273,331;  339,525;  306,600;  299,450
273,420;  270,525;  296,600;  313,450
273,510;  287,525;  292,600;  311,450
273,599;  311,525;  323,600;  312,450
273,688;  297,525;  311,600;  299,450
273,778;  283,525;  266,600;  259,450
273,867;  298,525;  287,600;  312,450
273,956;  303,525;  303,600;  273,450
274,045;  303,525;  263,600;  236,450
274,135;  292,525;  317,600;  317,450
274,224;  311,525;  316,600;  295,450
274,313;  302,525;  299,600;  294,450
274,402;  265,525;  263,600;  266,450
274,491;  317,525;  277,600;  286,450
274,581;  305,525;  302,600;  266,450
274,670;  259,525;  311,600;  303,450
274,759;  302,525;  303,600;  283,450
274,848;  280,525;  275,600;  301,450
274,937;  304,525;  276,600;  293,450
275,026;  270,525;  298,600;  255,450
275,116;  321,525;  323,600;  309,450
275,205;  276,525;  263,600;  231,450
275,294;  313,525;  333,600;  302,450
275,383;  259,525;  253,600;  278,450
275,472;  282,525;  286,600;  299,450
275,561;  290,525;  299,600;  300,450
275,650;  265,525;  289,600;  281,450
275,739;  282,525;  268,600;  287,450
275,828;  295,525;  262,600;  259,450
275,917;  340,525;  318,600;  305,450
276,006;  302,525;  255,600;  304,450
276,095;  292,525;  276,600;  294,450
276,184;  290,525;  317,600;  317,450
276,273;  319,525;  270,600;  297,450
276,362;  259,525;  260,600;  256,450
276,451;  292,525;  271,600;  286,450
276,540;  281,525;  259,600;  271,450
276,629;  272,525;  274,600;  290,450
276,718;  277,525;  268,600;  258,450
276,807;  243,525;  275,600;  256,450
276,896;  265,525;  269,600;  277,450
276,985;  266,525;  287,600;  255,450
277,074;  287,525;  270,600;  267,450
277,163;  286,525;  289,600;  281,450
277,252;  293,525;  269,600;  278,450
277,341;  268,525;  272,600;  248,450
277,430;  280,525;  239,600;  255,450
277,519;  301,525;  304,600;  293,450
277,608;  256,525;  254,600;  244,450
277,696;  262,525;  272,600;  279,450
277,785;  287,525;  255,600;  276,450
277,874;  295,525;  285,600;  259,450
277,963;  294,525;  273,600;  248,450
278,052;  253,525;  264,600;  286,450
278,141;  272,525;  289,600;  267,450
278,229;  287,525;  279,600;  278,450
278,318;  253,525;  278,600;  269,450
278,407;  264,525;  288,600;  264,450
278,496;  268,525;  319,600;  277,450
278,585;  293,525;  288,600;  297,450
278,673;  255,525;  257,600;  251,450
278,762;  236,525;  238,600;  264,450
278,851;  291,525;  293,600;  272,450
278,940;  305,525;  293,600;  318,450
279,028;  290,525;  271,600;  284,450
279,117;  273,525;  290,600;  283,450
279,206;  257,525;  260,600;  254,450
279,294;  273,525;  280,600;  268,450
279,383;  284,525;  272,600;  289,450
279,472;  290,525;  311,600;  252,450
279,561;  294,525;  264,600;  275,450
279,649;  316,525;  305,600;  283,450
279,738;  252,525;  229,600;  266,450
279,827;  309,525;  285,600;  272,450
279,915;  282,525;  283,600;  248,450
280,004;  280,525;  273,600;  285,450
280,092;  297,525;  286,600;  275,450
280,181;  291,525;  284,600;  249,450
280,270;  298,525;  280,600;  236,450
280,358;  294,525;  299,600;  288,450
280,447;  277,525;  246,600;  240,450
280,535;  270,525;  284,600;  259,450
280,624;  281,525;  291,600;  256,450
280,713;  278,525;  267,600;  266,450
280,801;  252,525;  303,600;  274,450
280,890;  284,525;  262,600;  274,450
280,978;  304,525;  267,600;  239,450
281,067;  240,525;  229,600;  244,450
281,155;  306,525;  267,600;  279,450
281,244;  329,525;  301,600;  299,450
281,332;  323,525;  252,600;  297,450
281,421;  269,525;  273,600;  229,450
281,509;  277,525;  266,600;  268,450
281,598;  246,525;  255,600;  241,450
281,686;  284,525;  300,600;  277,450
281,775;  301,525;  283,600;  280,450
281,863;  268,525;  244,600;  264,450
281,951;  314,525;  254,600;  256,450
282,040;  294,525;  289,600;  320,450
282,128;  307,525;  289,600;  290,450
282,217;  280,525;  255,600;  246,450
282,305;  301,525;  291,600;  280,450
282,393;  268,525;  332,600;  266,450
282,482;  254,525;  314,600;  268,450
282,570;  281,525;  274,600;  279,450
282,658;  289,525;  295,600;  277,450
282,747;  248,525;  257,600;  278,450
282,835;  287,525;  319,600;  305,450
282,923;  248,525;  230,600;  262,450
283,012;  294,525;  268,600;  305,450
283,100;  292,525;  263,600;  230,450
283,188;  295,525;  244,600;  243,450
283,277;  285,525;  279,600;  282,450
283,365;  273,525;  252,600;  253,450
283,453;  290,525;  253,600;  228,450
283,542;  275,525;  293,600;  259,450
283,630;  271,525;  259,600;  271,450
283,718;  262,525;  271,600;  247,450
283,806;  236,525;  225,600;  226,450
283,894;  296,525;  276,600;  274,450
283,983;  293,525;  256,600;  279,450
284,071;  293,525;  307,600;  269,450
284,159;  320,525;  319,600;  305,450
284,247;  293,525;  296,600;  287,450
284,335;  281,525;  267,600;  263,450
284,424;  296,525;  287,600;  269,450
284,512;  254,525;  295,600;  248,450
284,600;  295,525;  261,600;  236,450
284,688;  324,525;  297,600;  325,450
284,776;  260,525;  259,600;  277,450
284,864;  303,525;  327,600;  300,450
284,952;  284,525;  291,600;  276,450
285,041;  305,525;  286,600;  304,450
285,129;  293,525;  304,600;  290,450
285,217;  281,525;  309,600;  280,450
285,305;  299,525;  297,600;  304,450
285,393;  283,525;  255,600;  268,450
285,481;  292,525;  292,600;  274,450
285,569;  284,525;  297,600;  281,450
285,657;  290,525;  272,600;  276,450
285,745;  289,525;  334,600;  282,450
285,833;  269,525;  277,600;  294,450
285,921;  305,525;  301,600;  299,450
286,009;  315,525;  308,600;  308,450
286,097;  306,525;  313,600;  288,450
286,185;  294,525;  294,600;  259,450
286,273;  282,525;  302,600;  257,450
286,361;  310,525;  322,600;  287,450
286,449;  293,525;  305,600;  260,450
286,537;  300,525;  300,600;  248,450
286,625;  306,525;  300,600;  275,450
286,713;  272,525;  262,600;  270,450
286,801;  330,525;  320,600;  307,450
286,889;  314,525;  304,600;  282,450
286,976;  271,525;  271,600;  266,450
287,064;  320,525;  297,600;  309,450
287,152;  303,525;  332,600;  299,450
287,240;  328,525;  297,600;  327,450
287,328;  320,525;  249,600;  245,450
287,416;  263,525;  295,600;  277,450
287,504;  305,525;  302,600;  274,450
287,591;  271,525;  317,600;  307,450
287,679;  287,525;  272,600;  275,450
287,767;  283,525;  270,600;  292,450
287,855;  277,525;  271,600;  284,450
287,943;  320,525;  312,600;  269,450
288,030;  253,525;  246,600;  293,450
288,118;  317,525;  325,600;  295,450
288,206;  279,525;  264,600;  290,450
288,294;  298,525;  273,600;  292,450
288,382;  313,525;  301,600;  288,450
288,469;  316,525;  324,600;  274,450
288,557;  310,525;  276,600;  275,450
288,645;  299,525;  321,600;  281,450
288,732;  280,525;  274,600;  276,450
288,820;  314,525;  334,600;  270,450
288,908;  309,525;  295,600;  295,450
288,995;  300,525;  295,600;  277,450
289,083;  315,525;  278,600;  278,450
289,171;  341,525;  328,600;  310,450
289,258;  362,525;  402,600;  311,450
289,346;  422,525;  433,600;  329,450
289,434;  279,525;  345,600;  318,450
289,521;  277,525;  298,600;  281,450
289,609;  326,525;  317,600;  309,450
289,697;  300,525;  310,600;  321,450
289,784;  320,525;  300,600;  284,450
289,872;  305,525;  314,600;  313,450
289,959;  264,525;  274,600;  262,450
290,047;  298,525;  268,600;  272,450
290,134;  297,525;  286,600;  264,450
290,222;  329,525;  317,600;  294,450
290,310;  302,525;  310,600;  280,450
290,397;  333,525;  302,600;  319,450
290,485;  282,525;  291,600;  284,450
290,572;  336,525;  286,600;  318,450
290,660;  318,525;  300,600;  293,450
290,747;  250,525;  292,600;  290,450
290,835;  292,525;  296,600;  321,450
290,922;  286,525;  307,600;  294,450
291,009;  283,525;  310,600;  283,450
291,097;  286,525;  305,600;  282,450
291,184;  320,525;  319,600;  313,450
291,272;  267,525;  297,600;  264,450
291,359;  296,525;  283,600;  283,450
291,447;  313,525;  294,600;  309,450
291,534;  302,525;  310,600;  315,450
291,621;  265,525;  261,600;  308,450
291,709;  279,525;  284,600;  270,450
291,796;  297,525;  313,600;  323,450
291,884;  286,525;  310,600;  308,450
291,971;  304,525;  306,600;  287,450
292,058;  290,525;  250,600;  294,450
292,146;  287,525;  293,600;  279,450
292,233;  286,525;  284,600;  243,450
292,320;  306,525;  294,600;  284,450
292,408;  297,525;  316,600;  297,450
292,495;  260,525;  302,600;  281,450
292,582;  273,525;  276,600;  273,450
292,669;  246,525;  273,600;  285,450
292,757;  274,525;  292,600;  288,450
292,844;  314,525;  305,600;  312,450
292,931;  271,525;  272,600;  266,450
293,018;  296,525;  267,600;  264,450
293,106;  280,525;  290,600;  324,450
293,193;  266,525;  265,600;  280,450
293,280;  296,525;  304,600;  310,450
293,367;  291,525;  279,600;  295,450
293,455;  295,525;  253,600;  248,450
293,542;  259,525;  264,600;  268,450
293,629;  276,525;  264,600;  272,450
293,716;  329,525;  341,600;  307,450
293,803;  257,525;  273,600;  279,450
293,890;  321,525;  284,600;  298,450
293,978;  277,525;  277,600;  266,450
294,065;  287,525;  293,600;  268,450
294,152;  316,525;  276,600;  315,450
294,239;  290,525;  294,600;  269,450
294,326;  304,525;  307,600;  277,450
294,413;  276,525;  280,600;  253,450
294,500;  321,525;  304,600;  286,450
294,587;  257,525;  291,600;  255,450
294,674;  312,525;  280,600;  314,450
294,761;  269,525;  283,600;  266,450
294,848;  279,525;  275,600;  288,450
294,935;  280,525;  281,600;  279,450
295,022;  256,525;  269,600;  243,450
295,109;  259,525;  259,600;  253,450
295,196;  318,525;  297,600;  309,450
295,283;  281,525;  295,600;  256,450
295,370;  295,525;  318,600;  307,450
295,457;  277,525;  266,600;  285,450
295,544;  293,525;  277,600;  264,450
295,631;  260,525;  282,600;  272,450
295,718;  260,525;  279,600;  248,450
295,805;  327,525;  298,600;  281,450
295,892;  310,525;  314,600;  274,450
295,979;  276,525;  294,600;  284,450
296,066;  295,525;  306,600;  278,450
296,153;  317,525;  313,600;  324,450
296,240;  313,525;  312,600;  282,450
296,327;  290,525;  286,600;  257,450
296,413;  321,525;  316,600;  272,450
296,500;  323,525;  330,600;  261,450
296,587;  558,525;  534,600;  268,450
296,674; 1678,525; 1749,600;  263,450
296,761;  776,525;  786,600;  252,450
296,848;  270,525;  299,600;  274,450
296,934;  299,525;  296,600;  274,450
297,021;  274,525;  286,600;  266,450
297,108;  280,525;  310,600;  269,450
297,195;  351,525;  276,600;  268,450
297,282;  258,525;  295,600;  273,450
297,368;  265,525;  297,600;  347,450
297,455;  294,525;  284,600;  259,450
297,542;  309,525;  330,600;  316,450
297,629;  291,525;  315,600;  290,450
297,715;  304,525;  309,600;  306,450
297,802;  280,525;  286,600;  273,450
297,889;  342,525;  307,600;  319,450
297,975;  306,525;  326,600;  320,450
298,062;  285,525;  325,600;  301,450
298,149;  291,525;  300,600;  269,450
298,235;  315,525;  286,600;  308,450
298,322;  290,525;  287,600;  291,450
298,409;  292,525;  340,600;  304,450
298,495;  270,525;  282,600;  250,450
298,582;  305,525;  303,600;  304,450
298,669;  265,525;  290,600;  290,450
298,755;  310,525;  295,600;  281,450
298,842;  303,525;  315,600;  314,450
298,928;  296,525;  298,600;  281,450
299,015;  272,525;  287,600;  296,450
299,102;  314,525;  306,600;  309,450
299,188;  306,525;  307,600;  292,450
299,275;  323,525;  313,600;  289,450
299,361;  283,525;  274,600;  256,450
299,448;  297,525;  283,600;  278,450
299,534;  316,525;  328,600;  282,450
299,621;  292,525;  323,600;  302,450
299,707;  275,525;  298,600;  298,450
299,794;  299,525;  318,600;  322,450
299,880;  304,525;  301,600;  313,450
299,967;  307,525;  285,600;  251,450
300,053;  323,525;  301,600;  301,450
300,140;  291,525;  314,600;  315,450
300,226;  289,525;  320,600;  297,450
300,312;  293,525;  310,600;  306,450
300,399;  291,525;  290,600;  309,450
300,485;  301,525;  310,600;  268,450
300,572;  295,525;  272,600;  257,450
300,658;  286,525;  299,600;  272,450
300,744;  308,525;  310,600;  301,450
300,831;  287,525;  302,600;  292,450
300,917;  320,525;  298,600;  310,450
301,004;  307,525;  299,600;  288,450
301,090;  280,525;  279,600;  254,450
301,176;  285,525;  284,600;  254,450
301,263;  315,525;  322,600;  282,450
301,349;  293,525;  294,600;  273,450
301,435;  273,525;  267,600;  268,450
301,521;  281,525;  323,600;  301,450
301,608;  292,525;  311,600;  319,450
301,694;  305,525;  304,600;  283,450
301,780;  290,525;  296,600;  288,450
301,867;  250,525;  281,600;  274,450
301,953;  282,525;  289,600;  304,450
302,039;  405,525;  409,600;  273,450
302,125;  520,525;  539,600;  281,450
302,211;  376,525;  349,600;  300,450
302,298;  342,525;  374,600;  261,450
302,384;  298,525;  296,600;  238,450
302,470;  288,525;  280,600;  280,450
302,556;  291,525;  331,600;  294,450
302,642;  279,525;  286,600;  226,450
302,729;  290,525;  300,600;  270,450
302,815;  308,525;  299,600;  269,450
302,901;  265,525;  267,600;  294,450
302,987;  281,525;  299,600;  293,450
303,073;  323,525;  284,600;  283,450
303,159;  298,525;  295,600;  305,450
303,245;  315,525;  279,600;  256,450
303,331;  282,525;  281,600;  277,450
303,417;  296,525;  283,600;  328,450
303,503;  327,525;  331,600;  293,450
303,590;  282,525;  289,600;  272,450
303,676;  269,525;  289,600;  302,450
303,762;  276,525;  288,600;  270,450
303,848;  305,525;  295,600;  316,450
303,934;  337,525;  323,600;  286,450
304,020;  300,525;  304,600;  288,450
304,106;  296,525;  318,600;  287,450
304,192;  281,525;  265,600;  275,450
304,278;  292,525;  297,600;  304,450
304,364;  314,525;  327,600;  303,450
304,450;  303,525;  283,600;  288,450
304,535;  303,525;  304,600;  295,450
304,621;  308,525;  302,600;  309,450
304,707;  293,525;  294,600;  296,450
304,793;  320,525;  323,600;  295,450
304,879;  293,525;  305,600;  292,450
304,965;  325,525;  297,600;  273,450
305,051;  297,525;  310,600;  260,450
305,137;  300,525;  266,600;  314,450
305,223;  275,525;  299,600;  301,450
305,309;  312,525;  306,600;  306,450
305,394;  310,525;  266,600;  282,450
305,480;  290,525;  298,600;  266,450
305,566;  287,525;  280,600;  297,450
305,652;  293,525;  297,600;  308,450
305,738;  337,525;  332,600;  315,450
305,824;  290,525;  280,600;  303,450
305,909;  314,525;  338,600;  301,450
305,995;  279,525;  267,600;  268,450
306,081;  334,525;  368,600;  334,450
306,167;  310,525;  287,600;  311,450
306,252;  288,525;  319,600;  311,450
306,338;  320,525;  332,600;  332,450
306,424;  277,525;  315,600;  260,450
306,510;  340,525;  355,600;  305,450
306,595;  292,525;  303,600;  335,450
306,681;  289,525;  321,600;  287,450
306,767;  299,525;  313,600;  286,450
306,852;  310,525;  337,600;  314,450
306,938;  343,525;  291,600;  336,450
307,024;  295,525;  281,600;  321,450
307,109;  336,525;  340,600;  327,450
307,195;  303,525;  318,600;  337,450
307,281;  332,525;  322,600;  315,450
307,366;  291,525;  319,600;  284,450
307,452;  325,525;  292,600;  312,450
307,537;  281,525;  289,600;  281,450
307,623;  309,525;  272,600;  282,450
307,709;  299,525;  302,600;  325,450
307,794;  265,525;  293,600;  258,450
307,880;  304,525;  321,600;  320,450
307,965;  274,525;  278,600;  274,450
308,051;  290,525;  263,600;  305,450
308,136;  301,525;  314,600;  260,450
308,222;  312,525;  306,600;  301,450
308,307;  297,525;  286,600;  312,450
308,393;  294,525;  294,600;  285,450
308,478;  322,525;  321,600;  308,450
308,564;  274,525;  280,600;  276,450
308,649;  293,525;  308,600;  304,450
308,735;  280,525;  320,600;  278,450
308,820;  288,525;  328,600;  304,450
308,906;  278,525;  298,600;  272,450
308,991;  340,525;  339,600;  314,450
309,076;  298,525;  335,600;  290,450
309,162;  285,525;  265,600;  245,450
309,247;  305,525;  297,600;  288,450
309,333;  280,525;  284,600;  286,450
309,418;  311,525;  281,600;  297,450
309,503;  300,525;  301,600;  289,450
309,589;  300,525;  308,600;  306,450
309,674;  266,525;  274,600;  268,450
309,759;  287,525;  291,600;  289,450
309,845;  295,525;  290,600;  312,450
309,930;  293,525;  292,600;  288,450
310,015;  295,525;  257,600;  251,450
310,101;  312,525;  282,600;  296,450
310,186;  285,525;  267,600;  298,450
310,271;  301,525;  298,600;  286,450
310,357;  244,525;  265,600;  286,450
310,442;  285,525;  288,600;  263,450
310,527;  289,525;  288,600;  306,450
310,612;  248,525;  291,600;  253,450
310,698;  312,525;  282,600;  275,450
310,783;  301,525;  288,600;  279,450
310,868;  266,525;  313,600;  263,450
310,953;  252,525;  269,600;  293,450
311,038;  285,525;  289,600;  286,450
311,124;  259,525;  296,600;  277,450
311,209;  244,525;  293,600;  291,450
311,294;  288,525;  306,600;  303,450
311,379;  271,525;  254,600;  258,450
311,464;  310,525;  302,600;  291,450
311,549;  287,525;  277,600;  294,450
311,634;  285,525;  284,600;  275,450
311,719;  309,525;  308,600;  309,450
311,805;  277,525;  308,600;  275,450
311,890;  322,525;  308,600;  261,450
311,975;  285,525;  262,600;  283,450
312,060;  310,525;  321,600;  289,450
312,145;  276,525;  277,600;  262,450
312,230;  294,525;  313,600;  285,450
312,315;  306,525;  325,600;  262,450
312,400;  418,525;  404,600;  303,450
312,485; 1742,525; 1668,600;  292,450
312,570; 1219,525; 1232,600;  239,450
312,655;  318,525;  342,600;  282,450
312,740;  332,525;  312,600;  289,450
312,825;  294,525;  329,600;  301,450
312,910;  342,525;  343,600;  278,450
312,995;  475,525;  443,600;  325,450
313,080; 2018,525; 2082,600;  265,450
313,165; 2119,525; 2149,600;  310,450
313,250;  362,525;  308,600;  276,450
313,335;  296,525;  321,600;  307,450
313,419;  257,525;  269,600;  242,450
313,504;  304,525;  304,600;  286,450
313,589;  277,525;  272,600;  277,450
313,674;  312,525;  303,600;  290,450
313,759;  289,525;  274,600;  273,450
313,844;  318,525;  276,600;  289,450
313,929;  305,525;  295,600;  285,450
314,014;  340,525;  307,600;  320,450
314,098;  293,525;  321,600;  305,450
314,183;  266,525;  258,600;  260,450
314,268;  300,525;  295,600;  290,450
314,353;  334,525;  287,600;  290,450
314,438;  307,525;  287,600;  294,450
314,522;  306,525;  272,600;  306,450
314,607;  296,525;  282,600;  302,450
314,692;  319,525;  291,600;  301,450
314,777;  306,525;  291,600;  279,450
314,861;  293,525;  293,600;  263,450
314,946;  310,525;  321,600;  303,450
315,031;  303,525;  284,600;  267,450
315,115;  299,525;  309,600;  318,450
315,200;  312,525;  301,600;  285,450
315,285;  292,525;  278,600;  275,450
315,369;  276,525;  282,600;  273,450
315,454;  311,525;  291,600;  305,450
315,539;  339,525;  280,600;  283,450
315,623;  303,525;  308,600;  292,450
315,708;  317,525;  326,600;  315,450
315,793;  311,525;  318,600;  308,450
315,877;  295,525;  311,600;  282,450
315,962;  281,525;  263,600;  283,450
316,046;  293,525;  327,600;  298,450
316,131;  330,525;  334,600;  313,450
316,216;  333,525;  308,600;  288,450
316,300;  287,525;  307,600;  281,450
316,385;  328,525;  301,600;  319,450
316,469;  340,525;  335,600;  331,450
316,554;  258,525;  290,600;  288,450
316,638;  302,525;  297,600;  286,450
316,723;  327,525;  285,600;  262,450
316,807;  291,525;  268,600;  273,450
316,892;  299,525;  293,600;  275,450
316,976;  336,525;  298,600;  318,450
317,061;  308,525;  282,600;  309,450
317,145;  317,525;  316,600;  315,450
317,230;  313,525;  309,600;  304,450
317,314;  241,525;  264,600;  259,450
317,398;  289,525;  280,600;  323,450
317,483;  253,525;  312,600;  266,450
317,567;  288,525;  299,600;  317,450
317,652;  306,525;  280,600;  244,450
317,736;  282,525;  277,600;  329,450
317,820;  306,525;  343,600;  287,450
317,905;  292,525;  311,600;  289,450
317,989;  295,525;  303,600;  312,450
318,073;  294,525;  281,600;  280,450
318,158;  280,525;  262,600;  284,450
318,242;  320,525;  297,600;  269,450
318,326;  271,525;  265,600;  260,450
318,411;  263,525;  263,600;  290,450
318,495;  264,525;  274,600;  286,450
318,579;  277,525;  264,600;  266,450
318,664;  259,525;  284,600;  242,450
318,748;  307,525;  290,600;  266,450
318,832;  277,525;  261,600;  263,450
318,916;  261,525;  272,600;  263,450
319,001;  288,525;  287,600;  299,450
319,085;  267,525;  265,600;  265,450
319,169;  291,525;  304,600;  285,450
319,253;  278,525;  270,600;  271,450
319,337;  310,525;  311,600;  265,450
319,422;  287,525;  329,600;  325,450
319,506;  281,525;  282,600;  264,450
319,590;  293,525;  303,600;  320,450
319,674;  296,525;  326,600;  301,450
319,758;  276,525;  277,600;  278,450
319,842;  275,525;  280,600;  290,450
319,926;  270,525;  268,600;  280,450
320,010;  274,525;  267,600;  226,450
320,095;  261,525;  284,600;  274,450
320,179;  263,525;  270,600;  263,450
320,263;  285,525;  259,600;  265,450
320,347;  262,525;  217,600;  260,450
320,431;  256,525;  267,600;  245,450
320,515;  286,525;  297,600;  267,450
320,599;  265,525;  274,600;  263,450
320,683;  274,525;  295,600;  306,450
320,767;  260,525;  246,600;  230,450
320,851;  265,525;  247,600;  282,450
320,935;  296,525;  294,600;  317,450
321,019;  268,525;  258,600;  297,450
321,103;  264,525;  319,600;  295,450
321,187;  267,525;  272,600;  303,450
321,271;  286,525;  299,600;  251,450
321,355;  257,525;  290,600;  264,450
321,439;  289,525;  282,600;  306,450
321,523;  269,525;  285,600;  287,450
321,606;  271,525;  289,600;  301,450
321,690;  300,525;  285,600;  261,450
321,774;  288,525;  284,600;  286,450
321,858;  288,525;  300,600;  283,450
321,942;  284,525;  298,600;  291,450
322,026;  267,525;  296,600;  280,450
322,110;  285,525;  286,600;  264,450
322,194;  285,525;  279,600;  293,450
322,277;  273,525;  287,600;  257,450
322,361;  289,525;  260,600;  265,450
322,445;  277,525;  285,600;  252,450
322,529;  292,525;  298,600;  264,450
322,613;  276,525;  273,600;  262,450
322,696;  290,525;  287,600;  266,450
322,780;  272,525;  303,600;  256,450
322,864;  302,525;  310,600;  288,450
322,948;  287,525;  262,600;  270,450
323,031;  265,525;  268,600;  269,450
323,115;  280,525;  299,600;  257,450
323,199;  331,525;  291,600;  268,450
323,282;  280,525;  284,600;  302,450
323,366;  293,525;  280,600;  307,450
323,450;  256,525;  241,600;  266,450
323,533;  335,525;  309,600;  308,450
323,617;  247,525;  243,600;  238,450
323,701;  253,525;  239,600;  257,450
323,784;  266,525;  305,600;  289,450
323,868;  297,525;  302,600;  285,450
323,952;  263,525;  276,600;  272,450
324,035;  287,525;  295,600;  297,450
324,119;  300,525;  285,600;  262,450
324,202;  294,525;  280,600;  298,450
324,286;  282,525;  236,600;  286,450
324,370;  279,525;  291,600;  274,450
324,453;  311,525;  287,600;  296,450
324,537;  301,525;  280,600;  281,450
324,620;  294,525;  295,600;  303,450
324,704;  276,525;  281,600;  261,450
324,787;  299,525;  295,600;  267,450
324,871;  283,525;  293,600;  314,450
324,954;  308,525;  299,600;  318,450
325,038;  294,525;  299,600;  301,450
325,121;  307,525;  302,600;  316,450
325,205;  279,525;  273,600;  277,450
325,288;  245,525;  280,600;  269,450
325,371;  297,525;  275,600;  285,450
325,455;  320,525;  289,600;  302,450
325,538;  283,525;  292,600;  308,450
325,622;  331,525;  302,600;  306,450
325,705;  288,525;  303,600;  300,450
325,788;  296,525;  297,600;  298,450
325,872;  291,525;  264,600;  279,450
325,955;  299,525;  305,600;  300,450
326,039;  287,525;  290,600;  313,450
326,122;  315,525;  277,600;  288,450
326,205;  305,525;  320,600;  299,450
326,289;  287,525;  313,600;  313,450
326,372;  261,525;  310,600;  288,450
326,455;  319,525;  322,600;  318,450
326,538;  329,525;  312,600;  306,450
326,622;  324,525;  285,600;  313,450
326,705;  239,525;  272,600;  290,450
326,788;  306,525;  288,600;  324,450
326,871;  291,525;  286,600;  281,450
326,955;  314,525;  293,600;  333,450
327,038;  301,525;  304,600;  284,450
327,121;  269,525;  313,600;  303,450
327,204;  308,525;  315,600;  298,450
327,288;  305,525;  326,600;  328,450
327,371;  252,525;  286,600;  294,450
327,454;  320,525;  303,600;  316,450
327,537;  270,525;  272,600;  285,450
327,620;  297,525;  327,600;  309,450
327,703;  306,525;  308,600;  314,450
327,786;  281,525;  320,600;  319,450
327,870;  333,525;  321,600;  308,450
327,953;  314,525;  307,600;  296,450
328,036;  300,525;  291,600;  264,450
328,119;  310,525;  345,600;  299,450
328,202;  312,525;  305,600;  287,450
328,285;  340,525;  336,600;  306,450
328,368;  280,525;  335,600;  328,450
328,451;  319,525;  325,600;  334,450
328,534;  282,525;  292,600;  283,450
328,617;  293,525;  290,600;  281,450
328,700;  301,525;  325,600;  327,450
328,783;  299,525;  319,600;  292,450
328,866;  305,525;  294,600;  287,450
328,949;  324,525;  341,600;  325,450
329,032;  272,525;  292,600;  308,450
329,115;  266,525;  288,600;  279,450
329,198;  303,525;  265,600;  282,450
329,281;  290,525;  310,600;  277,450
329,364;  333,525;  300,600;  330,450
329,447;  319,525;  303,600;  300,450
329,530;  328,525;  321,600;  317,450
329,613;  293,525;  302,600;  289,450
329,696;  314,525;  308,600;  298,450
329,778;  298,525;  313,600;  293,450
329,861;  299,525;  309,600;  288,450
329,944;  325,525;  326,600;  272,450
330,027;  324,525;  312,600;  296,450
330,110;  294,525;  305,600;  313,450
330,193;  264,525;  284,600;  300,450
330,275;  305,525;  290,600;  298,450
330,358;  280,525;  278,600;  298,450
330,441;  311,525;  307,600;  326,450
330,524;  272,525;  322,600;  298,450
330,607;  299,525;  281,600;  304,450
330,689;  298,525;  278,600;  321,450
330,772;  299,525;  290,600;  305,450
330,855;  305,525;  329,600;  287,450
330,938;  297,525;  332,600;  319,450
331,020;  325,525;  298,600;  292,450
331,103;  280,525;  280,600;  310,450
331,186;  305,525;  298,600;  286,450
331,268;  286,525;  280,600;  269,450
331,351;  296,525;  285,600;  311,450
331,434;  282,525;  296,600;  316,450
331,516;  307,525;  313,600;  329,450
331,599;  272,525;  266,600;  255,450
331,682;  292,525;  301,600;  302,450
331,764;  277,525;  308,600;  261,450
331,847;  300,525;  311,600;  310,450
331,929;  283,525;  286,600;  278,450
332,012;  291,525;  296,600;  295,450
332,095;  343,525;  348,600;  317,450
332,177;  296,525;  353,600;  324,450
332,260;  317,525;  349,600;  345,450
332,342;  275,525;  310,600;  291,450
332,425;  309,525;  301,600;  293,450
332,507;  287,525;  239,600;  316,450
332,590;  297,525;  274,600;  280,450
332,672;  292,525;  310,600;  264,450
332,755;  293,525;  320,600;  233,450
332,837;  276,525;  286,600;  274,450
332,920;  287,525;  315,600;  298,450
333,002;  326,525;  308,600;  306,450
333,085;  333,525;  308,600;  298,450
333,167;  290,525;  275,600;  266,450
333,249;  265,525;  276,600;  277,450
333,332;  287,525;  275,600;  279,450
333,414;  282,525;  317,600;  295,450
333,497;  276,525;  315,600;  305,450
333,579;  272,525;  303,600;  307,450
333,661;  286,525;  319,600;  286,450
333,744;  301,525;  265,600;  243,450
333,826;  296,525;  302,600;  293,450
333,908;  305,525;  329,600;  332,450
333,991;  301,525;  253,600;  285,450
334,073;  452,525;  503,600;  321,450
334,155;  334,525;  360,600;  289,450
334,238;  331,525;  314,600;  286,450
334,320;  276,525;  296,600;  270,450
334,402;  312,525;  298,600;  292,450
334,485;  327,525;  305,600;  282,450
334,567;  288,525;  301,600;  262,450
334,649;  275,525;  266,600;  273,450
334,731;  325,525;  287,600;  285,450
334,813;  353,525;  346,600;  352,450
334,896;  311,525;  296,600;  287,450
334,978;  327,525;  302,600;  283,450
335,060;  301,525;  306,600;  296,450
335,142;  272,525;  265,600;  306,450
335,224;  314,525;  308,600;  310,450
335,307;  307,525;  277,600;  275,450
335,389;  281,525;  302,600;  315,450
335,471;  302,525;  300,600;  282,450
335,553;  295,525;  308,600;  317,450
335,635;  290,525;  303,600;  277,450
335,717;  293,525;  280,600;  305,450
335,799;  322,525;  314,600;  325,450
335,881;  286,525;  271,600;  251,450
335,963;  293,525;  283,600;  278,450
336,045;  260,525;  281,600;  276,450
336,128;  262,525;  281,600;  268,450
336,210;  244,525;  284,600;  250,450
336,292;  314,525;  301,600;  283,450
336,374;  306,525;  307,600;  287,450
336,456;  281,525;  290,600;  258,450
336,538;  284,525;  288,600;  304,450
336,620;  299,525;  325,600;  305,450
336,702;  274,525;  308,600;  309,450
336,783;  296,525;  299,600;  289,450
336,865;  278,525;  302,600;  303,450
336,947;  273,525;  299,600;  302,450
337,029;  283,525;  252,600;  262,450
337,111;  304,525;  309,600;  328,450
337,193;  267,525;  257,600;  250,450
337,275;  310,525;  302,600;  291,450
337,357;  318,525;  299,600;  305,450
337,439;  293,525;  299,600;  277,450
337,521;  265,525;  274,600;  268,450
337,602;  295,525;  280,600;  295,450
337,684;  306,525;  302,600;  341,450
337,766;  278,525;  301,600;  288,450
337,848;  272,525;  309,600;  318,450
337,930;  302,525;  300,600;  300,450
338,012;  283,525;  257,600;  295,450
338,093;  296,525;  302,600;  312,450
338,175;  338,525;  308,600;  308,450
338,257;  283,525;  296,600;  243,450
338,339;  276,525;  303,600;  248,450
338,420;  315,525;  304,600;  329,450
338,502;  289,525;  292,600;  292,450
338,584;  266,525;  261,600;  270,450
338,666;  307,525;  293,600;  301,450
338,747;  313,525;  337,600;  324,450
338,829;  317,525;  301,600;  300,450
338,911;  300,525;  281,600;  284,450
338,992;  264,525;  292,600;  299,450
339,074;  283,525;  300,600;  274,450
339,156;  316,525;  308,600;  302,450
339,237;  304,525;  344,600;  320,450
339,319;  305,525;  298,600;  284,450
339,400;  315,525;  301,600;  313,450
339,482;  281,525;  291,600;  259,450
339,564;  309,525;  337,600;  315,450
339,645;  321,525;  283,600;  306,450
339,727;  298,525;  284,600;  278,450
339,808;  279,525;  306,600;  320,450
339,890;  278,525;  285,600;  277,450
339,971;  270,525;  318,600;  299,450
340,053;  330,525;  327,600;  339,450
340,134;  286,525;  287,600;  283,450
340,216;  279,525;  294,600;  302,450
340,297;  288,525;  330,600;  312,450
340,379;  296,525;  344,600;  301,450
340,460;  282,525;  275,600;  299,450
340,542;  278,525;  307,600;  263,450
340,623;  309,525;  306,600;  325,450
340,705;  269,525;  306,600;  262,450
340,786;  291,525;  299,600;  288,450
340,868;  292,525;  299,600;  313,450
340,949;  266,525;  279,600;  269,450
341,030;  342,525;  330,600;  312,450
341,112;  248,525;  256,600;  269,450
341,193;  249,525;  287,600;  248,450
341,274;  315,525;  325,600;  312,450
341,356;  314,525;  329,600;  300,450
341,437;  292,525;  292,600;  284,450
341,518;  273,525;  313,600;  322,450
341,600;  320,525;  321,600;  324,450
341,681;  321,525;  316,600;  308,450
341,762;  310,525;  316,600;  314,450
341,844;  271,525;  271,600;  280,450
341,925;  286,525;  304,600;  329,450
342,006;  303,525;  314,600;  322,450
342,087;  292,525;  291,600;  308,450
342,169;  288,525;  301,600;  297,450
342,250;  295,525;  303,600;  250,450
342,331;  288,525;  291,600;  268,450
342,412;  283,525;  304,600;  283,450
342,493;  277,525;  279,600;  266,450
342,575;  303,525;  298,600;  308,450
342,656;  323,525;  343,600;  319,450
342,737;  317,525;  331,600;  316,450
342,818;  299,525;  319,600;  291,450
342,899;  278,525;  309,600;  295,450
342,980;  269,525;  306,600;  302,450
343,061;  291,525;  297,600;  279,450
343,143;  292,525;  299,600;  310,450
343,224;  279,525;  297,600;  287,450
343,305;  300,525;  294,600;  273,450
343,386;  320,525;  290,600;  295,450
343,467;  299,525;  306,600;  295,450
343,548;  281,525;  307,600;  271,450
343,629;  313,525;  348,600;  311,450
343,710;  313,525;  354,600;  330,450
343,791;  283,525;  296,600;  295,450
343,872;  293,525;  314,600;  271,450
343,953;  316,525;  323,600;  303,450
344,034;  334,525;  307,600;  307,450
344,115;  278,525;  298,600;  295,450
344,196;  301,525;  295,600;  273,450
344,277;  288,525;  282,600;  299,450
344,358;  301,525;  279,600;  295,450
344,439;  290,525;  281,600;  287,450
344,520;  322,525;  310,600;  269,450
344,601;  314,525;  319,600;  332,450
344,681;  279,525;  312,600;  315,450
344,762;  282,525;  275,600;  257,450
344,843;  302,525;  300,600;  255,450
344,924;  272,525;  252,600;  290,450
345,005;  280,525;  269,600;  286,450
345,086;  305,525;  301,600;  289,450
345,167;  274,525;  299,600;  282,450
345,247;  310,525;  305,600;  327,450
345,328;  311,525;  287,600;  317,450
345,409;  319,525;  280,600;  307,450
345,490;  312,525;  314,600;  310,450
345,571;  324,525;  293,600;  295,450
345,651;  266,525;  260,600;  335,450
345,732;  319,525;  303,600;  286,450
345,813;  307,525;  285,600;  291,450
345,894;  261,525;  254,600;  279,450
345,974;  291,525;  346,600;  305,450
346,055;  252,525;  275,600;  291,450
346,136;  305,525;  311,600;  287,450
346,216;  321,525;  312,600;  345,450
346,297;  304,525;  294,600;  289,450
346,378;  289,525;  270,600;  300,450
346,458;  291,525;  299,600;  271,450
346,539;  286,525;  295,600;  315,450
346,620;  306,525;  301,600;  312,450
346,700;  237,525;  302,600;  258,450
346,781;  256,525;  252,600;  260,450
346,861;  313,525;  283,600;  301,450
346,942;  272,525;  273,600;  319,450
347,023;  284,525;  302,600;  306,450
347,103;  280,525;  296,600;  287,450
347,184;  307,525;  321,600;  294,450
347,264;  272,525;  289,600;  310,450
347,345;  277,525;  280,600;  281,450
347,425;  267,525;  270,600;  295,450
347,506;  277,525;  283,600;  283,450
347,586;  289,525;  258,600;  283,450
347,667;  293,525;  316,600;  299,450
347,747;  310,525;  307,600;  304,450
347,828;  297,525;  308,600;  271,450
347,908;  298,525;  307,600;  307,450
347,988;  308,525;  296,600;  251,450
348,069;  326,525;  295,600;  305,450
348,149;  298,525;  303,600;  276,450
348,230;  304,525;  297,600;  301,450
348,310;  268,525;  291,600;  301,450
348,390;  277,525;  285,600;  267,450
348,471;  328,525;  299,600;  270,450
348,551;  248,525;  289,600;  264,450
348,632;  293,525;  288,600;  278,450
348,712;  307,525;  281,600;  278,450
348,792;  294,525;  352,600;  333,450
348,873;  267,525;  293,600;  249,450
348,953;  269,525;  278,600;  330,450
349,033;  294,525;  285,600;  311,450
349,113;  295,525;  278,600;  277,450
349,194;  334,525;  289,600;  310,450
349,274;  291,525;  300,600;  310,450
349,354;  266,525;  288,600;  285,450
349,434;  280,525;  300,600;  299,450
349,515;  301,525;  310,600;  320,450
349,595;  306,525;  308,600;  287,450
349,675;  285,525;  289,600;  299,450
349,755;  280,525;  325,600;  280,450
349,835;  305,525;  305,600;  309,450
349,916;  322,525;  298,600;  284,450
349,996;  306,525;  287,600;  253,450
350,076;  320,525;  286,600;  315,450
350,156;  297,525;  272,600;  280,450
350,236;  318,525;  292,600;  316,450
350,316;  282,525;  296,600;  282,450
350,396;  314,525;  283,600;  306,450
350,476;  309,525;  308,600;  275,450
350,556;  256,525;  275,600;  290,450
350,637;  332,525;  331,600;  312,450
350,717;  276,525;  269,600;  287,450
350,797;  298,525;  307,600;  305,450
350,877;  302,525;  305,600;  323,450
350,957;  273,525;  285,600;  291,450
351,037;  307,525;  303,600;  298,450
351,117;  307,525;  304,600;  275,450
351,197;  304,525;  331,600;  302,450
351,277;  288,525;  328,600;  277,450
351,357;  310,525;  322,600;  293,450
351,437;  299,525;  299,600;  283,450
351,516;  315,525;  337,600;  283,450
351,596;  281,525;  291,600;  329,450
351,676;  277,525;  269,600;  284,450
351,756;  336,525;  308,600;  326,450
351,836;  315,525;  285,600;  329,450
351,916;  305,525;  324,600;  287,450
351,996;  306,525;  313,600;  318,450
352,076;  280,525;  288,600;  302,450
352,156;  321,525;  317,600;  297,450
352,235;  281,525;  310,600;  304,450
352,315;  308,525;  313,600;  339,450
352,395;  320,525;  306,600;  277,450
352,475;  275,525;  339,600;  287,450
352,555;  328,525;  362,600;  344,450
352,634;  324,525;  304,600;  344,450
352,714;  291,525;  310,600;  263,450
352,794;  363,525;  334,600;  364,450
352,874;  323,525;  335,600;  339,450
352,953;  327,525;  336,600;  318,450
353,033;  313,525;  317,600;  344,450
353,113;  331,525;  360,600;  341,450
353,193;  369,525;  314,600;  334,450
353,272;  317,525;  295,600;  329,450
353,352;  325,525;  303,600;  275,450
353,432;  348,525;  324,600;  344,450
353,511;  305,525;  323,600;  302,450
353,591;  352,525;  352,600;  347,450
353,671;  318,525;  335,600;  320,450
353,750;  340,525;  311,600;  311,450
353,830;  313,525;  319,600;  296,450
353,909;  330,525;  335,600;  341,450
353,989;  281,525;  309,600;  297,450
354,069;  274,525;  315,600;  318,450
354,148;  311,525;  341,600;  323,450
354,228;  312,525;  315,600;  300,450
354,307;  310,525;  313,600;  312,450
354,387;  314,525;  316,600;  326,450
354,466;  310,525;  319,600;  299,450
354,546;  321,525;  314,600;  347,450
354,625;  321,525;  341,600;  324,450
354,705;  310,525;  272,600;  330,450
354,784;  288,525;  301,600;  303,450
354,864;  298,525;  309,600;  305,450
354,943;  312,525;  340,600;  339,450
355,023;  286,525;  288,600;  314,450
355,102;  336,525;  337,600;  333,450
355,181;  323,525;  328,600;  329,450
355,261;  306,525;  314,600;  344,450
355,340;  295,525;  301,600;  307,450
355,420;  328,525;  325,600;  327,450
355,499;  311,525;  294,600;  326,450
355,578;  339,525;  321,600;  324,450
355,658;  334,525;  310,600;  346,450
355,737;  311,525;  312,600;  309,450
355,816;  309,525;  330,600;  333,450
355,896;  311,525;  300,600;  301,450
355,975;  291,525;  308,600;  294,450
356,054;  314,525;  316,600;  285,450
356,133;  295,525;  287,600;  314,450
356,213;  304,525;  318,600;  292,450
356,292;  273,525;  297,600;  276,450
356,371;  289,525;  331,600;  297,450
356,451;  314,525;  345,600;  294,450
356,530;  347,525;  357,600;  319,450
356,609;  301,525;  306,600;  286,450
356,688;  356,525;  314,600;  298,450
356,767;  304,525;  299,600;  290,450
356,846;  312,525;  346,600;  295,450
356,926;  337,525;  342,600;  361,450
357,005;  266,525;  332,600;  321,450
357,084;  309,525;  318,600;  321,450
357,163;  301,525;  335,600;  341,450
357,242;  339,525;  286,600;  337,450
357,321;  274,525;  322,600;  296,450
357,400;  324,525;  305,600;  310,450
357,479;  290,525;  336,600;  292,450
357,559;  328,525;  325,600;  314,450
357,638;  291,525;  312,600;  292,450
357,717;  322,525;  322,600;  304,450
357,796;  337,525;  348,600;  323,450
357,875;  330,525;  333,600;  316,450
357,954;  281,525;  312,600;  285,450
358,033;  321,525;  311,600;  278,450
358,112;  324,525;  302,600;  300,450
358,191;  328,525;  313,600;  289,450
358,270;  312,525;  266,600;  300,450
358,349;  282,525;  291,600;  324,450
358,428;  304,525;  321,600;  335,450
358,507;  321,525;  348,600;  306,450
358,585;  307,525;  318,600;  326,450
358,664;  327,525;  318,600;  340,450
358,743;  336,525;  293,600;  304,450
358,822;  335,525;  354,600;  329,450
358,901;  314,525;  275,600;  303,450
358,980;  307,525;  308,600;  299,450
359,059;  325,525;  326,600;  326,450
359,138;  331,525;  308,600;  324,450
359,216;  311,525;  320,600;  314,450
359,295;  324,525;  325,600;  329,450
359,374;  321,525;  335,600;  301,450
359,453;  306,525;  340,600;  315,450
359,532;  279,525;  307,600;  310,450
359,610;  299,525;  315,600;  307,450
359,689;  349,525;  324,600;  330,450
359,768;  286,525;  305,600;  294,450
359,847;  292,525;  313,600;  287,450
359,925;  295,525;  303,600;  315,450
360,004;  283,525;  295,600;  289,450
360,083;  308,525;  299,600;  319,450
360,161;  302,525;  314,600;  285,450
360,240;  255,525;  272,600;  289,450
360,319;  295,525;  323,600;  309,450
360,397;  277,525;  313,600;  320,450
360,476;  295,525;  291,600;  325,450
360,555;  350,525;  334,600;  340,450
360,633;  299,525;  287,600;  300,450
360,712;  309,525;  299,600;  264,450
360,790;  356,525;  314,600;  320,450
360,869;  315,525;  297,600;  296,450
360,948;  306,525;  278,600;  334,450
361,026;  283,525;  321,600;  276,450
361,105;  308,525;  305,600;  290,450
361,183;  303,525;  294,600;  286,450
361,262;  273,525;  300,600;  280,450
361,340;  296,525;  318,600;  297,450
361,419;  269,525;  282,600;  250,450
361,497;  327,525;  300,600;  335,450
361,576;  317,525;  292,600;  315,450
361,654;  324,525;  361,600;  322,450
361,733;  283,525;  320,600;  300,450
361,811;  318,525;  320,600;  311,450
361,890;  283,525;  267,600;  289,450
361,968;  314,525;  269,600;  303,450
362,046;  349,525;  334,600;  321,450
362,125;  321,525;  353,600;  326,450
362,203;  334,525;  297,600;  287,450
362,282;  339,525;  319,600;  338,450
362,360;  296,525;  296,600;  307,450
362,438;  304,525;  310,600;  302,450
362,517;  336,525;  346,600;  347,450
362,595;  342,525;  312,600;  351,450
362,673;  309,525;  323,600;  317,450
362,752;  325,525;  349,600;  327,450
362,830;  325,525;  338,600;  349,450
362,908;  327,525;  310,600;  307,450
362,986;  332,525;  335,600;  315,450
363,065;  294,525;  313,600;  344,450
363,143;  344,525;  354,600;  367,450
363,221;  316,525;  302,600;  288,450
363,299;  307,525;  304,600;  309,450
363,378;  311,525;  297,600;  335,450
363,456;  290,525;  286,600;  316,450
363,534;  305,525;  318,600;  323,450
363,612;  305,525;  320,600;  312,450
363,690;  335,525;  319,600;  344,450
363,769;  329,525;  340,600;  345,450
363,847;  340,525;  308,600;  356,450
363,925;  286,525;  282,600;  303,450
364,003;  348,525;  343,600;  348,450
364,081;  331,525;  323,600;  338,450
364,159;  316,525;  325,600;  330,450
364,237;  349,525;  351,600;  326,450
364,315;  316,525;  306,600;  311,450
364,393;  343,525;  363,600;  340,450
364,471;  343,525;  345,600;  315,450
364,549;  349,525;  344,600;  337,450
364,627;  364,525;  339,600;  321,450
364,705;  355,525;  344,600;  299,450
364,783;  425,525;  417,600;  294,450
364,861; 1005,525; 1050,600;  311,450
364,939; 3634,525; 3619,600;  304,450
365,017;  759,525;  723,600;  298,450
365,095;  389,525;  341,600;  327,450
365,173;  364,525;  398,600;  335,450
365,251;  412,525;  356,600;  345,450
365,329;  548,525;  527,600;  344,450
365,407; 1135,525; 1155,600;  315,450
365,485;  474,525;  464,600;  377,450
365,563;  327,525;  354,600;  339,450
365,641;  355,525;  327,600;  316,450
365,719;  339,525;  361,600;  314,450
365,796;  341,525;  329,600;  309,450
365,874;  340,525;  329,600;  354,450
365,952;  303,525;  334,600;  297,450
366,030;  341,525;  311,600;  318,450
366,108;  377,525;  336,600;  325,450
366,185;  608,525;  644,600;  330,450
366,263;  895,525;  880,600;  333,450
366,341;  393,525;  362,600;  310,450
366,419;  334,525;  335,600;  319,450
366,496;  338,525;  347,600;  336,450
366,574;  315,525;  299,600;  321,450
366,652;  359,525;  381,600;  324,450
366,730;  368,525;  336,600;  375,450
366,807;  322,525;  317,600;  335,450
366,885;  344,525;  315,600;  340,450
366,963;  305,525;  305,600;  332,450
367,040;  355,525;  348,600;  348,450
367,118;  337,525;  315,600;  299,450
367,196;  316,525;  322,600;  355,450
367,273;  329,525;  331,600;  352,450
367,351;  306,525;  314,600;  320,450
367,428;  367,525;  351,600;  360,450
367,506;  344,525;  361,600;  305,450
367,584;  369,525;  352,600;  377,450
367,661;  366,525;  329,600;  332,450
367,739;  338,525;  328,600;  328,450
367,816;  315,525;  343,600;  292,450
367,894;  349,525;  368,600;  312,450
367,971;  368,525;  309,600;  328,450
368,049;  378,525;  376,600;  316,450
368,126;  352,525;  329,600;  318,450
368,204;  363,525;  333,600;  342,450
368,281;  344,525;  375,600;  360,450
368,359;  339,525;  352,600;  332,450
368,436;  332,525;  349,600;  336,450
368,514;  335,525;  344,600;  337,450
368,591;  337,525;  344,600;  347,450
368,668;  335,525;  375,600;  336,450
368,746;  367,525;  387,600;  352,450
368,823;  343,525;  338,600;  380,450
368,901;  335,525;  325,600;  328,450
368,978;  340,525;  329,600;  311,450
369,055;  349,525;  339,600;  332,450
369,133;  349,525;  371,600;  352,450
369,210;  347,525;  328,600;  366,450
369,287;  361,525;  364,600;  366,450
369,365;  347,525;  380,600;  367,450
369,442;  336,525;  347,600;  350,450
369,519;  336,525;  321,600;  298,450
369,596;  349,525;  359,600;  339,450
369,674;  328,525;  327,600;  283,450
369,751;  375,525;  337,600;  371,450
369,828;  343,525;  351,600;  337,450
369,905;  341,525;  358,600;  377,450
369,983;  308,525;  305,600;  327,450
370,060;  313,525;  323,600;  301,450
370,137;  353,525;  394,600;  401,450
370,214;  353,525;  321,600;  374,450
370,291;  340,525;  350,600;  340,450
370,368;  365,525;  356,600;  383,450
370,446;  338,525;  301,600;  350,450
370,523;  360,525;  360,600;  316,450
370,600;  354,525;  368,600;  319,450
370,677;  325,525;  348,600;  332,450
370,754;  360,525;  343,600;  331,450
370,831;  336,525;  352,600;  343,450
370,908;  365,525;  347,600;  374,450
370,985;  310,525;  333,600;  281,450
371,062;  364,525;  341,600;  344,450
371,139;  357,525;  361,600;  363,450
371,216;  343,525;  351,600;  347,450
371,293;  332,525;  329,600;  359,450
371,370;  314,525;  322,600;  314,450
371,447;  365,525;  346,600;  342,450
371,524;  376,525;  346,600;  357,450
371,601;  383,525;  371,600;  341,450
371,678;  385,525;  350,600;  355,450
371,755;  332,525;  366,600;  335,450
371,832;  390,525;  370,600;  375,450
371,909;  335,525;  370,600;  318,450
371,986;  371,525;  371,600;  394,450
372,063;  358,525;  324,600;  329,450
372,140;  369,525;  342,600;  359,450
372,216;  330,525;  356,600;  331,450
372,293;  361,525;  310,600;  347,450
372,370;  381,525;  375,600;  357,450
372,447;  294,525;  329,600;  372,450
372,524;  360,525;  350,600;  371,450
372,601;  342,525;  369,600;  321,450
372,677;  332,525;  344,600;  333,450
372,754;  338,525;  355,600;  360,450
372,831;  346,525;  356,600;  354,450
372,908;  359,525;  380,600;  385,450
372,984;  378,525;  362,600;  356,450
373,061;  361,525;  317,600;  334,450
373,138;  348,525;  367,600;  366,450
373,215;  334,525;  329,600;  317,450
373,291;  335,525;  347,600;  356,450
373,368;  362,525;  378,600;  362,450
373,445;  374,525;  374,600;  345,450
373,521;  343,525;  355,600;  341,450
373,598;  352,525;  354,600;  314,450
373,675;  313,525;  335,600;  358,450
373,751;  346,525;  336,600;  357,450
373,828;  316,525;  338,600;  346,450
373,904;  399,525;  409,600;  394,450
373,981;  317,525;  340,600;  337,450
374,057;  350,525;  343,600;  341,450
374,134;  330,525;  339,600;  316,450
374,211;  319,525;  330,600;  339,450
374,287;  317,525;  336,600;  339,450
374,364;  368,525;  379,600;  370,450
374,440;  308,525;  279,600;  284,450
374,517;  374,525;  367,600;  360,450
374,593;  337,525;  326,600;  299,450
374,670;  326,525;  335,600;  311,450
374,746;  353,525;  347,600;  339,450
374,823;  377,525;  389,600;  364,450
374,899;  386,525;  353,600;  394,450
374,975;  352,525;  336,600;  333,450
375,052;  328,525;  327,600;  327,450
375,128;  306,525;  281,600;  339,450
375,205;  342,525;  346,600;  378,450
375,281;  340,525;  294,600;  331,450
375,357;  349,525;  371,600;  352,450
375,434;  315,525;  313,600;  355,450
375,510;  354,525;  354,600;  323,450
375,586;  320,525;  356,600;  351,450
375,663;  293,525;  314,600;  307,450
375,739;  316,525;  355,600;  380,450
375,815;  331,525;  340,600;  317,450
375,892;  328,525;  340,600;  341,450
375,968;  361,525;  313,600;  325,450
376,044;  344,525;  370,600;  333,450
376,120;  365,525;  311,600;  364,450
376,197;  345,525;  361,600;  328,450
376,273;  327,525;  347,600;  334,450
376,349;  412,525;  386,600;  368,450
376,425;  385,525;  378,600;  336,450
376,501;  334,525;  329,600;  348,450
376,578;  374,525;  332,600;  426,450
376,654;  403,525;  393,600;  365,450
376,730;  355,525;  340,600;  352,450
376,806;  390,525;  346,600;  382,450
376,882;  352,525;  376,600;  332,450
376,958;  370,525;  367,600;  347,450
377,034;  289,525;  320,600;  296,450
377,111;  371,525;  393,600;  358,450
377,187;  380,525;  410,600;  383,450
377,263;  383,525;  397,600;  372,450
377,339;  352,525;  341,600;  319,450
377,415;  336,525;  339,600;  356,450
377,491;  333,525;  362,600;  325,450
377,567;  371,525;  340,600;  369,450
377,643;  395,525;  376,600;  362,450
377,719;  369,525;  368,600;  351,450
377,795;  339,525;  313,600;  350,450
377,871;  374,525;  366,600;  386,450
377,947;  333,525;  343,600;  352,450
378,023;  351,525;  355,600;  339,450
378,099;  338,525;  325,600;  367,450
378,174;  355,525;  364,600;  365,450
378,250;  360,525;  372,600;  389,450
378,326;  356,525;  369,600;  382,450
378,402;  327,525;  359,600;  343,450
378,478;  382,525;  340,600;  355,450
378,554;  385,525;  347,600;  374,450
378,630;  363,525;  369,600;  336,450
378,706;  377,525;  364,600;  321,450
378,781;  397,525;  387,600;  385,450
378,857;  340,525;  359,600;  347,450
378,933;  364,525;  359,600;  335,450
379,009;  353,525;  346,600;  342,450
379,085;  386,525;  419,600;  384,450
379,160;  360,525;  381,600;  366,450
379,236;  369,525;  359,600;  361,450
379,312;  341,525;  337,600;  365,450
379,387;  362,525;  372,600;  349,450
379,463;  370,525;  355,600;  344,450
379,539;  371,525;  408,600;  387,450
379,615;  326,525;  337,600;  364,450
379,690;  402,525;  420,600;  410,450
379,766;  346,525;  389,600;  370,450
379,842;  376,525;  385,600;  366,450
379,917;  369,525;  389,600;  369,450
379,993;  388,525;  370,600;  358,450
380,068;  362,525;  341,600;  349,450
380,144;  368,525;  398,600;  393,450
380,220;  379,525;  388,600;  391,450
380,295;  374,525;  356,600;  356,450
380,371;  369,525;  358,600;  361,450
380,446;  366,525;  418,600;  376,450
380,522;  345,525;  340,600;  360,450
380,597;  367,525;  377,600;  349,450
380,673;  394,525;  395,600;  384,450
380,748;  336,525;  338,600;  344,450
380,824;  362,525;  364,600;  362,450
380,899;  390,525;  371,600;  364,450
380,975;  341,525;  388,600;  402,450
381,050;  356,525;  363,600;  336,450
381,126;  377,525;  370,600;  362,450
381,201;  392,525;  407,600;  405,450
381,277;  398,525;  367,600;  390,450
381,352;  402,525;  389,600;  377,450
381,427;  379,525;  359,600;  370,450
381,503;  392,525;  394,600;  377,450
381,578;  345,525;  363,600;  360,450
381,653;  392,525;  381,600;  387,450
381,729;  364,525;  346,600;  360,450
381,804;  367,525;  373,600;  375,450
381,879;  373,525;  380,600;  366,450
381,955;  358,525;  343,600;  346,450
382,030;  351,525;  346,600;  339,450
382,105;  395,525;  372,600;  372,450
382,181;  361,525;  382,600;  367,450
382,256;  372,525;  373,600;  383,450
382,331;  350,525;  371,600;  375,450
382,406;  371,525;  368,600;  343,450
382,482;  367,525;  371,600;  380,450
382,557;  386,525;  362,600;  335,450
382,632;  347,525;  364,600;  365,450
382,707;  352,525;  393,600;  349,450
382,782;  353,525;  395,600;  385,450
382,857;  359,525;  373,600;  356,450
382,933;  352,525;  354,600;  349,450
383,008;  345,525;  325,600;  336,450
383,083;  365,525;  382,600;  360,450
383,158;  376,525;  375,600;  368,450
383,233;  333,525;  368,600;  362,450
383,308;  373,525;  360,600;  326,450
383,383;  406,525;  394,600;  390,450
383,458;  340,525;  344,600;  340,450
383,533;  335,525;  331,600;  334,450
383,608;  352,525;  367,600;  381,450
383,683;  370,525;  381,600;  367,450
383,758;  380,525;  398,600;  353,450
383,833;  385,525;  343,600;  350,450
383,908;  349,525;  321,600;  367,450
383,983;  335,525;  365,600;  328,450
384,058;  360,525;  340,600;  383,450
384,133;  353,525;  372,600;  376,450
384,208;  374,525;  395,600;  375,450
384,283;  354,525;  362,600;  321,450
384,358;  369,525;  392,600;  390,450
384,433;  341,525;  347,600;  341,450
384,508;  378,525;  339,600;  338,450
384,583;  378,525;  337,600;  355,450
384,658;  354,525;  352,600;  366,450
384,732;  348,525;  329,600;  319,450
384,807;  382,525;  347,600;  366,450
384,882;  378,525;  391,600;  349,450
384,957;  354,525;  348,600;  345,450
385,032;  356,525;  383,600;  373,450
385,106;  351,525;  342,600;  369,450
385,181;  336,525;  353,600;  359,450
385,256;  352,525;  367,600;  336,450
385,331;  360,525;  375,600;  364,450
385,405;  377,525;  383,600;  400,450
385,480;  395,525;  362,600;  372,450
385,555;  393,525;  402,600;  399,450
385,630;  381,525;  369,600;  370,450
385,704;  371,525;  353,600;  390,450
385,779;  386,525;  363,600;  368,450
385,854;  375,525;  364,600;  380,450
385,928;  368,525;  348,600;  365,450
386,003;  390,525;  390,600;  397,450
386,078;  365,525;  374,600;  369,450
386,152;  414,525;  391,600;  412,450
386,227;  333,525;  347,600;  354,450
386,301;  401,525;  389,600;  348,450
386,376;  316,525;  352,600;  346,450
386,450;  370,525;  356,600;  374,450
386,525;  378,525;  357,600;  376,450
386,600;  376,525;  367,600;  381,450
386,674;  356,525;  374,600;  364,450
386,749;  359,525;  395,600;  359,450
386,823;  352,525;  363,600;  377,450
386,898;  378,525;  386,600;  374,450
386,972;  377,525;  383,600;  354,450
387,047;  351,525;  368,600;  364,450
387,121;  385,525;  375,600;  363,450
387,195;  375,525;  359,600;  352,450
387,270;  366,525;  384,600;  385,450
387,344;  394,525;  429,600;  393,450
387,419;  385,525;  367,600;  412,450
387,493;  396,525;  371,600;  377,450
387,567;  321,525;  351,600;  336,450
387,642;  442,525;  383,600;  402,450
387,716;  372,525;  368,600;  378,450
387,790;  348,525;  337,600;  366,450
387,865;  385,525;  351,600;  364,450
387,939;  414,525;  405,600;  406,450
388,013;  364,525;  377,600;  417,450
388,088;  361,525;  361,600;  363,450
388,162;  381,525;  366,600;  355,450
388,236;  382,525;  381,600;  416,450
388,310;  376,525;  368,600;  361,450
388,385;  415,525;  324,600;  400,450
388,459;  390,525;  362,600;  379,450
388,533;  368,525;  378,600;  365,450
388,607;  368,525;  374,600;  378,450
388,682;  377,525;  369,600;  394,450
388,756;  345,525;  375,600;  378,450
388,830;  384,525;  378,600;  413,450
388,904;  347,525;  382,600;  382,450
388,978;  333,525;  368,600;  361,450
389,052;  380,525;  390,600;  343,450
389,126;  360,525;  353,600;  387,450
389,200;  365,525;  376,600;  362,450
389,275;  353,525;  382,600;  389,450
389,349;  406,525;  405,600;  380,450
389,423;  387,525;  380,600;  369,450
389,497;  377,525;  426,600;  377,450
389,571;  368,525;  391,600;  375,450
389,645;  378,525;  378,600;  388,450
389,719;  354,525;  384,600;  388,450
389,793;  325,525;  341,600;  322,450
389,867;  400,525;  410,600;  386,450
389,941;  363,525;  367,600;  369,450
390,015;  388,525;  348,600;  372,450
390,089;  354,525;  369,600;  344,450
390,163;  410,525;  368,600;  375,450
390,237;  381,525;  356,600;  361,450
390,310;  393,525;  393,600;  366,450
390,384;  395,525;  383,600;  344,450
390,458;  426,525;  414,600;  432,450
390,532;  380,525;  401,600;  395,450
390,606;  370,525;  361,600;  328,450
390,680;  362,525;  354,600;  373,450
390,754;  361,525;  373,600;  342,450
390,827;  390,525;  382,600;  388,450
390,901;  391,525;  362,600;  377,450
390,975;  396,525;  366,600;  368,450
391,049;  372,525;  374,600;  392,450
391,123;  346,525;  342,600;  367,450
391,196;  348,525;  344,600;  368,450
391,270;  391,525;  372,600;  366,450
391,344;  353,525;  384,600;  374,450
391,418;  375,525;  368,600;  366,450
391,491;  352,525;  362,600;  365,450
391,565;  371,525;  341,600;  346,450
391,639;  411,525;  379,600;  381,450
391,712;  384,525;  373,600;  385,450
391,786;  347,525;  401,600;  429,450
391,860;  367,525;  354,600;  354,450
391,933;  365,525;  366,600;  333,450
392,007;  379,525;  393,600;  364,450
392,081;  397,525;  404,600;  366,450
392,154;  383,525;  366,600;  394,450
392,228;  387,525;  392,600;  387,450
392,301;  374,525;  366,600;  402,450
392,375;  391,525;  394,600;  406,450
392,448;  382,525;  397,600;  375,450
392,522;  379,525;  382,600;  383,450
392,595;  351,525;  389,600;  365,450
392,669;  380,525;  386,600;  367,450
392,742;  411,525;  378,600;  401,450
392,816;  426,525;  376,600;  383,450
392,889;  373,525;  392,600;  401,450
392,963;  397,525;  400,600;  382,450
393,036;  397,525;  366,600;  401,450
393,110;  401,525;  388,600;  376,450
393,183;  384,525;  407,600;  399,450
393,257;  410,525;  437,600;  408,450
393,330;  370,525;  373,600;  391,450
393,403;  386,525;  410,600;  372,450
393,477;  358,525;  347,600;  364,450
393,550;  367,525;  413,600;  387,450
393,623;  346,525;  374,600;  402,450
393,697;  404,525;  404,600;  411,450
393,770;  360,525;  386,600;  364,450
393,843;  422,525;  419,600;  412,450
393,917;  401,525;  400,600;  407,450
393,990;  378,525;  378,600;  395,450
394,063;  387,525;  403,600;  375,450
394,136;  411,525;  390,600;  390,450
394,210;  378,525;  393,600;  380,450
394,283;  408,525;  385,600;  395,450
394,356;  394,525;  410,600;  373,450
394,429;  403,525;  399,600;  357,450
394,502;  383,525;  404,600;  373,450
394,576;  408,525;  416,600;  404,450
394,649;  361,525;  376,600;  381,450
394,722;  390,525;  390,600;  390,450
394,795;  411,525;  413,600;  406,450
394,868;  389,525;  369,600;  390,450
394,941;  393,525;  371,600;  368,450
395,014;  412,525;  419,600;  416,450
395,088;  414,525;  404,600;  391,450
395,161;  395,525;  402,600;  399,450
395,234;  382,525;  390,600;  397,450
395,307;  392,525;  413,600;  388,450
395,380;  381,525;  393,600;  392,450
395,453;  438,525;  439,600;  425,450
395,526;  387,525;  430,600;  407,450
395,599;  412,525;  422,600;  432,450
395,672;  391,525;  378,600;  408,450
395,745;  416,525;  400,600;  390,450
395,818;  390,525;  385,600;  376,450
395,891;  389,525;  408,600;  379,450
395,964;  399,525;  398,600;  436,450
396,036;  411,525;  400,600;  390,450
396,109;  393,525;  399,600;  381,450
396,182;  388,525;  392,600;  382,450
396,255;  396,525;  417,600;  383,450
396,328;  411,525;  412,600;  432,450
396,401;  381,525;  363,600;  381,450
396,474;  398,525;  399,600;  360,450
396,547;  405,525;  411,600;  417,450
396,619;  385,525;  384,600;  393,450
396,692;  433,525;  371,600;  354,450
396,765;  352,525;  375,600;  376,450
396,838;  384,525;  367,600;  390,450
396,911;  400,525;  363,600;  352,450
396,983;  416,525;  385,600;  396,450
397,056;  354,525;  375,600;  367,450
397,129;  365,525;  369,600;  368,450
397,201;  387,525;  413,600;  395,450
397,274;  411,525;  379,600;  382,450
397,347;  361,525;  364,600;  378,450
397,420;  408,525;  373,600;  379,450
397,492;  400,525;  404,600;  380,450
397,565;  361,525;  372,600;  365,450
397,637;  379,525;  371,600;  361,450
397,710;  350,525;  349,600;  341,450
397,783;  429,525;  444,600;  401,450
397,855;  345,525;  363,600;  346,450
397,928;  356,525;  381,600;  330,450
398,000;  403,525;  369,600;  384,450
398,073;  384,525;  376,600;  372,450
398,146;  376,525;  365,600;  358,450
398,218;  374,525;  417,600;  363,450
398,291;  393,525;  398,600;  385,450
398,363;  379,525;  370,600;  358,450
398,436;  363,525;  369,600;  360,450
398,508;  411,525;  378,600;  369,450
398,581;  386,525;  368,600;  367,450
398,653;  404,525;  318,600;  382,450
398,726;  371,525;  376,600;  371,450
398,798;  393,525;  390,600;  376,450
398,870;  387,525;  374,600;  374,450
398,943;  374,525;  371,600;  357,450
399,015;  409,525;  362,600;  383,450
399,088;  361,525;  377,600;  373,450
399,160;  370,525;  370,600;  348,450
399,232;  337,525;  332,600;  349,450
399,305;  372,525;  379,600;  362,450
399,377;  386,525;  350,600;  343,450
399,449;  400,525;  398,600;  388,450
399,522;  392,525;  442,600;  416,450
399,594;  340,525;  359,600;  346,450
399,666;  371,525;  393,600;  361,450
399,738;  358,525;  378,600;  375,450
399,811;  387,525;  370,600;  388,450
399,883;  399,525;  392,600;  378,450
399,955;  393,525;  429,600;  331,450
400,027;  339,525;  342,600;  364,450
400,100;  372,525;  402,600;  427,450
400,172;  339,525;  360,600;  354,450
400,244;  365,525;  369,600;  361,450
400,316;  386,525;  396,600;  381,450
400,388;  373,525;  408,600;  368,450
400,460;  353,525;  350,600;  359,450
400,532;  343,525;  329,600;  337,450
400,605;  366,525;  378,600;  368,450
400,677;  404,525;  389,600;  380,450
400,749;  394,525;  403,600;  406,450
400,821;  370,525;  384,600;  385,450
400,893;  351,525;  364,600;  384,450
400,965;  406,525;  390,600;  380,450
401,037;  375,525;  376,600;  402,450
401,109;  354,525;  363,600;  365,450
401,181;  360,525;  383,600;  398,450

