p100promedio
Integration time [ms]:   0,150
Averaging Nr. [scans]: 100
Smoothing Nr. [pixels]: 0
Data measured with spectrometer [name]: 7416147SP
Wave   ;Sample   ;Dark     ;Reference
[nm]   ;[counts] ;[counts] ;[counts] 

230,218;  288,504;  284,600;  274,450
230,311;  312,184;  306,600;  296,450
230,404;  302,844;  298,600;  326,450
230,497;  308,743;  295,600;  309,450
230,591;  329,993;  342,600;  328,450
230,684;  320,714;  317,600;  333,450
230,777;  307,594;  318,600;  312,450
230,870;  307,993;  330,600;  321,450
230,964;  303,374;  321,600;  306,450
231,057;  332,884;  306,600;  332,450
231,150;  327,573;  320,600;  304,450
231,243;  323,034;  310,600;  310,450
231,336;  324,414;  334,600;  326,450
231,430;  312,613;  320,600;  279,450
231,523;  318,983;  346,600;  304,450
231,616;  299,793;  297,600;  290,450
231,709;  337,273;  328,600;  315,450
231,802;  309,874;  280,600;  295,450
231,895;  306,034;  293,600;  313,450
231,988;  318,423;  312,600;  320,450
232,082;  300,793;  316,600;  281,450
232,175;  308,083;  289,600;  279,450
232,268;  306,703;  319,600;  301,450
232,361;  309,634;  288,600;  264,450
232,454;  325,053;  297,600;  320,450
232,547;  324,303;  333,600;  272,450
232,640;  300,673;  314,600;  287,450
232,733;  318,754;  297,600;  300,450
232,826;  295,613;  303,600;  270,450
232,919;  318,884;  318,600;  294,450
233,012;  295,263;  322,600;  292,450
233,105;  305,453;  318,600;  283,450
233,199;  308,884;  324,600;  298,450
233,292;  299,184;  293,600;  307,450
233,385;  267,273;  262,600;  233,450
233,478;  301,964;  302,600;  272,450
233,571;  326,993;  314,600;  293,450
233,664;  312,684;  341,600;  283,450
233,757;  282,923;  254,600;  231,450
233,850;  287,073;  272,600;  248,450
233,943;  296,143;  298,600;  272,450
234,035;  306,273;  318,600;  292,450
234,128;  286,284;  282,600;  265,450
234,221;  305,233;  310,600;  293,450
234,314;  313,543;  333,600;  318,450
234,407;  313,404;  338,600;  286,450
234,500;  286,094;  286,600;  280,450
234,593;  295,043;  280,600;  290,450
234,686;  299,684;  276,600;  256,450
234,779;  295,724;  270,600;  275,450
234,872;  286,613;  276,600;  261,450
234,965;  293,013;  298,600;  286,450
235,058;  282,233;  269,600;  263,450
235,150;  295,724;  311,600;  286,450
235,243;  287,243;  280,600;  311,450
235,336;  308,664;  317,600;  296,450
235,429;  276,724;  258,600;  241,450
235,522;  336,344;  352,600;  293,450
235,615;  266,113;  309,600;  253,450
235,707;  288,733;  289,600;  277,450
235,800;  296,643;  302,600;  268,450
235,893;  295,803;  328,600;  262,450
235,986;  306,023;  305,600;  312,450
236,079;  294,273;  310,600;  308,450
236,171;  275,773;  272,600;  270,450
236,264;  317,534;  310,600;  282,450
236,357;  300,474;  289,600;  297,450
236,450;  316,004;  314,600;  308,450
236,542;  275,523;  286,600;  258,450
236,635;  318,603;  319,600;  287,450
236,728;  292,863;  276,600;  273,450
236,821;  286,853;  270,600;  268,450
236,913;  281,833;  326,600;  268,450
237,006;  275,273;  300,600;  257,450
237,099;  290,414;  289,600;  271,450
237,191;  301,513;  345,600;  288,450
237,284;  276,393;  256,600;  282,450
237,377;  299,173;  294,600;  312,450
237,470;  292,784;  291,600;  256,450
237,562;  284,823;  266,600;  261,450
237,655;  327,833;  342,600;  294,450
237,747;  300,694;  325,600;  263,450
237,840;  318,444;  292,600;  302,450
237,933;  305,634;  327,600;  284,450
238,025;  308,493;  338,600;  306,450
238,118;  290,773;  306,600;  287,450
238,211;  277,493;  282,600;  227,450
238,303;  274,053;  277,600;  273,450
238,396;  270,083;  289,600;  270,450
238,488;  297,353;  300,600;  281,450
238,581;  294,793;  306,600;  235,450
238,673;  291,453;  304,600;  273,450
238,766;  288,803;  268,600;  282,450
238,859;  278,733;  282,600;  277,450
238,951;  286,754;  295,600;  280,450
239,044;  279,034;  270,600;  283,450
239,136;  273,344;  269,600;  284,450
239,229;  283,784;  297,600;  291,450
239,321;  278,363;  262,600;  248,450
239,414;  297,904;  289,600;  288,450
239,506;  289,474;  280,600;  267,450
239,599;  320,314;  352,600;  292,450
239,691;  292,844;  306,600;  269,450
239,784;  308,094;  296,600;  288,450
239,876;  302,344;  280,600;  288,450
239,969;  291,603;  287,600;  281,450
240,061;  278,224;  277,600;  262,450
240,153;  285,154;  260,600;  278,450
240,246;  293,404;  295,600;  292,450
240,338;  318,583;  309,600;  324,450
240,431;  272,733;  277,600;  282,450
240,523;  277,384;  300,600;  237,450
240,615;  304,944;  293,600;  321,450
240,708;  316,173;  355,600;  292,450
240,800;  292,333;  302,600;  288,450
240,893;  276,483;  274,600;  261,450
240,985;  295,323;  321,600;  270,450
241,077;  276,773;  268,600;  262,450
241,170;  305,573;  313,600;  286,450
241,262;  295,993;  284,600;  284,450
241,354;  260,393;  246,600;  244,450
241,447;  290,464;  286,600;  271,450
241,539;  276,393;  295,600;  247,450
241,631;  322,714;  312,600;  279,450
241,724;  268,303;  261,600;  246,450
241,816;  284,164;  258,600;  264,450
241,908;  285,573;  278,600;  263,450
242,000;  286,083;  283,600;  263,450
242,093;  284,233;  303,600;  261,450
242,185;  286,634;  306,600;  269,450
242,277;  279,844;  282,600;  242,450
242,369;  290,624;  278,600;  269,450
242,462;  280,564;  271,600;  247,450
242,554;  284,363;  253,600;  266,450
242,646;  293,303;  282,600;  270,450
242,738;  312,103;  320,600;  281,450
242,830;  267,134;  292,600;  230,450
242,923;  306,624;  309,600;  303,450
243,015;  274,673;  288,600;  269,450
243,107;  276,083;  280,600;  253,450
243,199;  280,134;  309,600;  300,450
243,291;  281,513;  319,600;  253,450
243,383;  259,004;  240,600;  273,450
243,476;  273,694;  257,600;  282,450
243,568;  288,543;  293,600;  284,450
243,660;  281,404;  260,600;  268,450
243,752;  289,803;  305,600;  270,450
243,844;  305,353;  299,600;  284,450
243,936;  299,423;  316,600;  299,450
244,028;  307,284;  332,600;  290,450
244,120;  257,833;  267,600;  230,450
244,212;  296,684;  298,600;  289,450
244,305;  268,444;  267,600;  270,450
244,397;  296,073;  315,600;  267,450
244,489;  308,134;  303,600;  285,450
244,581;  301,483;  301,600;  279,450
244,673;  285,784;  286,600;  252,450
244,765;  294,323;  277,600;  293,450
244,857;  292,134;  303,600;  251,450
244,949;  289,483;  305,600;  282,450
245,041;  258,414;  250,600;  223,450
245,133;  298,833;  294,600;  292,450
245,225;  286,613;  258,600;  248,450
245,317;  294,263;  253,600;  267,450
245,409;  271,703;  282,600;  263,450
245,501;  294,643;  286,600;  265,450
245,593;  293,493;  328,600;  278,450
245,685;  289,564;  330,600;  286,450
245,776;  290,474;  298,600;  267,450
245,868;  273,173;  308,600;  263,450
245,960;  265,023;  242,600;  252,450
246,052;  317,164;  291,600;  307,450
246,144;  296,784;  282,600;  285,450
246,236;  286,564;  296,600;  257,450
246,328;  294,823;  285,600;  287,450
246,420;  287,444;  282,600;  270,450
246,512;  316,414;  303,600;  295,450
246,604;  289,284;  280,600;  278,450
246,695;  274,874;  275,600;  268,450
246,787;  303,914;  288,600;  299,450
246,879;  296,974;  296,600;  275,450
246,971;  304,964;  305,600;  285,450
247,063;  277,733;  281,600;  253,450
247,155;  301,384;  295,600;  240,450
247,246;  290,833;  305,600;  285,450
247,338;  293,513;  297,600;  287,450
247,430;  301,754;  298,600;  312,450
247,522;  303,754;  294,600;  294,450
247,613;  306,034;  287,600;  278,450
247,705;  296,763;  302,600;  286,450
247,797;  317,874;  322,600;  301,450
247,889;  306,763;  294,600;  286,450
247,980;  312,743;  318,600;  273,450
248,072;  322,333;  315,600;  275,450
248,164;  342,874;  368,600;  297,450
248,256;  295,523;  280,600;  302,450
248,347;  315,703;  312,600;  275,450
248,439;  286,964;  302,600;  260,450
248,531;  308,874;  301,600;  297,450
248,622;  314,284;  315,600;  318,450
248,714;  282,333;  303,600;  257,450
248,806;  304,004;  301,600;  287,450
248,897;  297,393;  266,600;  290,450
248,989;  269,694;  260,600;  246,450
249,081;  289,603;  291,600;  305,450
249,172;  299,733;  289,600;  264,450
249,264;  277,874;  310,600;  303,450
249,356;  276,464;  274,600;  253,450
249,447;  289,733;  287,600;  283,450
249,539;  286,784;  289,600;  288,450
249,630;  295,803;  296,600;  286,450
249,722;  322,414;  310,600;  305,450
249,813;  292,483;  302,600;  256,450
249,905;  299,434;  319,600;  291,450
249,997;  288,303;  270,600;  248,450
250,088;  293,624;  295,600;  285,450
250,180;  293,893;  280,600;  288,450
250,271;  292,263;  296,600;  268,450
250,363;  328,094;  329,600;  307,450
250,454;  286,793;  268,600;  238,450
250,546;  299,214;  271,600;  272,450
250,637;  275,263;  285,600;  242,450
250,729;  283,414;  267,600;  250,450
250,820;  304,073;  306,600;  297,450
250,912;  280,634;  299,600;  243,450
251,003;  292,184;  285,600;  296,450
251,095;  294,523;  296,600;  273,450
251,186;  284,884;  269,600;  253,450
251,277;  292,763;  276,600;  290,450
251,369;  292,043;  295,600;  275,450
251,460;  289,823;  272,600;  272,450
251,552;  300,594;  293,600;  292,450
251,643;  296,303;  292,600;  276,450
251,735;  294,224;  303,600;  241,450
251,826;  290,004;  313,600;  259,450
251,917;  318,053;  325,600;  258,450
252,009;  320,993;  338,600;  254,450
252,100;  327,284;  343,600;  266,450
252,191;  345,263;  337,600;  260,450
252,283;  339,603;  328,600;  299,450
252,374;  367,073;  372,600;  289,450
252,465;  391,064;  390,600;  301,450
252,557;  385,374;  393,600;  251,450
252,648;  385,553;  378,600;  258,450
252,739;  419,823;  397,600;  267,450
252,831;  416,004;  439,600;  250,450
252,922;  459,434;  440,600;  266,450
253,013;  504,474;  520,600;  241,450
253,104;  566,633;  576,600;  255,450
253,196;  684,734;  712,600;  265,450
253,287;  842,123;  807,600;  289,450
253,378; 1224,823; 1233,600;  257,450
253,469; 4223,963; 4083,600;  246,450
253,561;23155,473;23239,600;  253,450
253,652;42355,664;42949,602;  272,450
253,743; 5709,664; 5893,600;  210,450
253,834;  621,414;  622,600;  260,450
253,926;  499,953;  531,600;  249,450
254,017;  474,493;  459,600;  280,450
254,108;  446,224;  528,600;  290,450
254,199;  426,634;  418,600;  277,450
254,290;  421,993;  380,600;  290,450
254,381;  407,853;  429,600;  276,450
254,472;  409,323;  437,600;  250,450
254,564;  409,434;  411,600;  327,450
254,655;  383,043;  392,600;  304,450
254,746;  339,243;  345,600;  225,450
254,837;  369,833;  372,600;  282,450
254,928;  350,564;  368,600;  247,450
255,019;  361,113;  375,600;  281,450
255,110;  367,714;  357,600;  302,450
255,201;  344,203;  318,600;  284,450
255,292;  371,553;  381,600;  271,450
255,383;  338,073;  347,600;  265,450
255,474;  333,434;  329,600;  248,450
255,566;  342,314;  366,600;  271,450
255,657;  340,624;  350,600;  306,450
255,748;  301,303;  292,600;  235,450
255,839;  311,303;  331,600;  282,450
255,930;  320,154;  292,600;  302,450
256,021;  326,113;  336,600;  297,450
256,112;  306,953;  296,600;  257,450
256,203;  336,863;  339,600;  315,450
256,294;  320,624;  321,600;  265,450
256,384;  300,893;  279,600;  261,450
256,475;  311,453;  289,600;  284,450
256,566;  299,004;  297,600;  274,450
256,657;  289,673;  291,600;  267,450
256,748;  293,483;  302,600;  280,450
256,839;  284,184;  281,600;  274,450
256,930;  292,523;  278,600;  260,450
257,021;  314,914;  328,600;  283,450
257,112;  315,823;  311,600;  327,450
257,203;  269,164;  268,600;  240,450
257,294;  265,564;  276,600;  257,450
257,385;  296,404;  284,600;  272,450
257,475;  287,893;  277,600;  255,450
257,566;  296,404;  313,600;  267,450
257,657;  279,393;  339,600;  264,450
257,748;  283,154;  283,600;  252,450
257,839;  287,914;  319,600;  306,450
257,930;  292,233;  276,600;  275,450
258,020;  277,134;  278,600;  281,450
258,111;  271,934;  285,600;  256,450
258,202;  292,754;  309,600;  258,450
258,293;  287,493;  267,600;  255,450
258,384;  309,043;  329,600;  295,450
258,474;  288,453;  296,600;  244,450
258,565;  270,863;  250,600;  252,450
258,656;  294,684;  306,600;  257,450
258,747;  271,733;  293,600;  255,450
258,837;  277,983;  266,600;  231,450
258,928;  276,414;  247,600;  280,450
259,019;  273,853;  272,600;  264,450
259,109;  275,164;  264,600;  254,450
259,200;  289,303;  292,600;  291,450
259,291;  269,434;  246,600;  297,450
259,381;  295,904;  309,600;  264,450
259,472;  296,694;  299,600;  272,450
259,563;  302,884;  307,600;  273,450
259,653;  278,233;  281,600;  247,450
259,744;  269,243;  280,600;  260,450
259,835;  303,293;  284,600;  274,450
259,925;  271,983;  257,600;  276,450
260,016;  289,004;  303,600;  282,450
260,107;  259,583;  264,600;  265,450
260,197;  284,583;  279,600;  258,450
260,288;  277,803;  263,600;  273,450
260,378;  267,874;  274,600;  244,450
260,469;  289,543;  299,600;  273,450
260,560;  266,254;  267,600;  276,450
260,650;  271,564;  269,600;  265,450
260,741;  279,323;  279,600;  256,450
260,831;  274,743;  246,600;  276,450
260,922;  267,754;  271,600;  258,450
261,012;  273,323;  271,600;  256,450
261,103;  301,703;  320,600;  294,450
261,193;  302,874;  317,600;  320,450
261,284;  266,423;  256,600;  254,450
261,374;  298,743;  295,600;  253,450
261,465;  284,773;  321,600;  304,450
261,555;  278,453;  271,600;  275,450
261,646;  292,974;  290,600;  300,450
261,736;  289,073;  265,600;  287,450
261,827;  283,833;  293,600;  256,450
261,917;  307,914;  294,600;  344,450
262,007;  283,823;  269,600;  289,450
262,098;  283,453;  334,600;  256,450
262,188;  327,023;  316,600;  305,450
262,279;  293,124;  290,600;  292,450
262,369;  283,694;  276,600;  282,450
262,459;  286,904;  262,600;  260,450
262,550;  299,553;  314,600;  290,450
262,640;  273,953;  261,600;  274,450
262,731;  294,483;  302,600;  298,450
262,821;  307,974;  287,600;  323,450
262,911;  296,993;  312,600;  268,450
263,002;  287,004;  278,600;  271,450
263,092;  304,523;  292,600;  309,450
263,182;  280,844;  280,600;  257,450
263,273;  279,944;  277,600;  261,450
263,363;  293,203;  309,600;  284,450
263,453;  266,923;  266,600;  259,450
263,543;  287,993;  289,600;  326,450
263,634;  262,314;  263,600;  262,450
263,724;  288,043;  278,600;  276,450
263,814;  303,363;  304,600;  288,450
263,904;  283,064;  270,600;  267,450
263,995;  318,993;  306,600;  321,450
264,085;  287,344;  301,600;  259,450
264,175;  291,874;  284,600;  306,450
264,265;  313,803;  305,600;  298,450
264,356;  269,523;  260,600;  289,450
264,446;  306,143;  296,600;  298,450
264,536;  293,173;  270,600;  297,450
264,626;  316,464;  315,600;  295,450
264,716;  298,983;  330,600;  277,450
264,806;  308,784;  327,600;  306,450
264,897;  253,243;  255,600;  273,450
264,987;  306,763;  310,600;  286,450
265,077;  308,814;  297,600;  285,450
265,167;  369,754;  394,600;  346,450
265,257;  326,523;  333,600;  273,450
265,347;  323,904;  331,600;  286,450
265,437;  314,724;  304,600;  289,450
265,527;  304,393;  314,600;  292,450
265,617;  280,194;  292,600;  265,450
265,708;  309,224;  330,600;  308,450
265,798;  300,974;  315,600;  301,450
265,888;  299,353;  275,600;  270,450
265,978;  288,853;  274,600;  242,450
266,068;  306,404;  291,600;  316,450
266,158;  286,573;  288,600;  254,450
266,248;  267,214;  305,600;  248,450
266,338;  308,523;  307,600;  293,450
266,428;  295,273;  294,600;  259,450
266,518;  309,073;  321,600;  320,450
266,608;  294,703;  245,600;  273,450
266,698;  269,344;  284,600;  256,450
266,788;  271,154;  263,600;  248,450
266,878;  322,064;  350,600;  317,450
266,968;  297,404;  282,600;  304,450
267,058;  293,974;  280,600;  292,450
267,147;  303,374;  327,600;  300,450
267,237;  288,263;  293,600;  276,450
267,327;  279,194;  292,600;  276,450
267,417;  295,293;  320,600;  264,450
267,507;  287,694;  297,600;  294,450
267,597;  278,793;  273,600;  272,450
267,687;  282,803;  268,600;  286,450
267,777;  280,564;  267,600;  270,450
267,867;  312,363;  321,600;  296,450
267,956;  299,874;  282,600;  257,450
268,046;  302,414;  306,600;  298,450
268,136;  290,983;  265,600;  291,450
268,226;  272,404;  269,600;  261,450
268,316;  276,344;  266,600;  262,450
268,406;  287,184;  268,600;  338,450
268,495;  279,504;  278,600;  259,450
268,585;  299,904;  304,600;  263,450
268,675;  281,134;  296,600;  260,450
268,765;  294,923;  296,600;  287,450
268,854;  281,703;  277,600;  291,450
268,944;  288,023;  288,600;  299,450
269,034;  282,303;  313,600;  279,450
269,124;  282,214;  283,600;  286,450
269,213;  278,643;  277,600;  255,450
269,303;  284,523;  290,600;  247,450
269,393;  294,923;  265,600;  307,450
269,483;  296,513;  338,600;  273,450
269,572;  279,863;  295,600;  243,450
269,662;  272,194;  286,600;  301,450
269,752;  311,474;  320,600;  299,450
269,841;  265,353;  270,600;  247,450
269,931;  276,654;  264,600;  276,450
270,021;  298,034;  299,600;  295,450
270,110;  282,624;  286,600;  268,450
270,200;  292,573;  329,600;  299,450
270,289;  272,034;  258,600;  279,450
270,379;  298,603;  315,600;  282,450
270,469;  285,784;  297,600;  273,450
270,558;  297,483;  300,600;  286,450
270,648;  275,453;  266,600;  245,450
270,737;  286,043;  288,600;  271,450
270,827;  307,803;  279,600;  263,450
270,916;  285,414;  266,600;  280,450
271,006;  287,083;  287,600;  287,450
271,096;  313,173;  312,600;  334,450
271,185;  282,884;  307,600;  299,450
271,275;  298,743;  305,600;  279,450
271,364;  277,993;  300,600;  286,450
271,454;  304,773;  301,600;  273,450
271,543;  291,923;  295,600;  279,450
271,633;  287,273;  293,600;  257,450
271,722;  284,023;  240,600;  257,450
271,812;  280,853;  255,600;  299,450
271,901;  289,964;  276,600;  286,450
271,990;  284,603;  293,600;  267,450
272,080;  284,613;  282,600;  284,450
272,169;  296,203;  339,600;  288,450
272,259;  287,743;  319,600;  275,450
272,348;  296,664;  291,600;  305,450
272,438;  289,534;  302,600;  301,450
272,527;  299,094;  288,600;  290,450
272,616;  298,053;  295,600;  300,450
272,706;  318,064;  319,600;  313,450
272,795;  308,643;  285,600;  290,450
272,884;  290,483;  302,600;  294,450
272,974;  310,603;  281,600;  279,450
273,063;  329,534;  361,600;  290,450
273,152;  300,053;  299,600;  296,450
273,242;  314,583;  296,600;  311,450
273,331;  315,543;  306,600;  299,450
273,420;  300,893;  296,600;  313,450
273,510;  301,023;  292,600;  311,450
273,599;  300,203;  323,600;  312,450
273,688;  295,733;  311,600;  299,450
273,778;  279,013;  266,600;  259,450
273,867;  315,573;  287,600;  312,450
273,956;  299,444;  303,600;  273,450
274,045;  267,143;  263,600;  236,450
274,135;  298,664;  317,600;  317,450
274,224;  285,743;  316,600;  295,450
274,313;  301,453;  299,600;  294,450
274,402;  277,353;  263,600;  266,450
274,491;  306,893;  277,600;  286,450
274,581;  296,673;  302,600;  266,450
274,670;  286,493;  311,600;  303,450
274,759;  297,073;  303,600;  283,450
274,848;  272,673;  275,600;  301,450
274,937;  283,284;  276,600;  293,450
275,026;  281,733;  298,600;  255,450
275,116;  314,613;  323,600;  309,450
275,205;  286,083;  263,600;  231,450
275,294;  321,934;  333,600;  302,450
275,383;  295,124;  253,600;  278,450
275,472;  279,703;  286,600;  299,450
275,561;  284,483;  299,600;  300,450
275,650;  303,023;  289,600;  281,450
275,739;  289,833;  268,600;  287,450
275,828;  275,634;  262,600;  259,450
275,917;  303,273;  318,600;  305,450
276,006;  293,974;  255,600;  304,450
276,095;  291,154;  276,600;  294,450
276,184;  303,844;  317,600;  317,450
276,273;  298,374;  270,600;  297,450
276,362;  269,034;  260,600;  256,450
276,451;  287,993;  271,600;  286,450
276,540;  287,083;  259,600;  271,450
276,629;  286,384;  274,600;  290,450
276,718;  261,964;  268,600;  258,450
276,807;  262,363;  275,600;  256,450
276,896;  276,314;  269,600;  277,450
276,985;  281,743;  287,600;  255,450
277,074;  294,483;  270,600;  267,450
277,163;  292,143;  289,600;  281,450
277,252;  270,823;  269,600;  278,450
277,341;  279,233;  272,600;  248,450
277,430;  273,803;  239,600;  255,450
277,519;  294,513;  304,600;  293,450
277,608;  259,444;  254,600;  244,450
277,696;  264,393;  272,600;  279,450
277,785;  276,853;  255,600;  276,450
277,874;  291,173;  285,600;  259,450
277,963;  282,823;  273,600;  248,450
278,052;  259,203;  264,600;  286,450
278,141;  284,273;  289,600;  267,450
278,229;  286,323;  279,600;  278,450
278,318;  261,423;  278,600;  269,450
278,407;  279,993;  288,600;  264,450
278,496;  280,694;  319,600;  277,450
278,585;  294,714;  288,600;  297,450
278,673;  260,773;  257,600;  251,450
278,762;  265,263;  238,600;  264,450
278,851;  279,194;  293,600;  272,450
278,940;  296,143;  293,600;  318,450
279,028;  290,303;  271,600;  284,450
279,117;  278,934;  290,600;  283,450
279,206;  276,143;  260,600;  254,450
279,294;  280,034;  280,600;  268,450
279,383;  281,444;  272,600;  289,450
279,472;  289,314;  311,600;  252,450
279,561;  278,113;  264,600;  275,450
279,649;  302,113;  305,600;  283,450
279,738;  254,723;  229,600;  266,450
279,827;  303,293;  285,600;  272,450
279,915;  269,254;  283,600;  248,450
280,004;  280,814;  273,600;  285,450
280,092;  300,983;  286,600;  275,450
280,181;  283,064;  284,600;  249,450
280,270;  287,083;  280,600;  236,450
280,358;  298,384;  299,600;  288,450
280,447;  264,694;  246,600;  240,450
280,535;  272,953;  284,600;  259,450
280,624;  268,243;  291,600;  256,450
280,713;  273,453;  267,600;  266,450
280,801;  291,043;  303,600;  274,450
280,890;  287,893;  262,600;  274,450
280,978;  272,263;  267,600;  239,450
281,067;  245,964;  229,600;  244,450
281,155;  273,143;  267,600;  279,450
281,244;  313,553;  301,600;  299,450
281,332;  290,953;  252,600;  297,450
281,421;  265,073;  273,600;  229,450
281,509;  278,664;  266,600;  268,450
281,598;  257,013;  255,600;  241,450
281,686;  287,194;  300,600;  277,450
281,775;  285,243;  283,600;  280,450
281,863;  274,983;  244,600;  264,450
281,951;  272,754;  254,600;  256,450
282,040;  305,173;  289,600;  320,450
282,128;  291,333;  289,600;  290,450
282,217;  266,513;  255,600;  246,450
282,305;  298,983;  291,600;  280,450
282,393;  279,374;  332,600;  266,450
282,482;  282,013;  314,600;  268,450
282,570;  267,983;  274,600;  279,450
282,658;  282,404;  295,600;  277,450
282,747;  268,793;  257,600;  278,450
282,835;  308,453;  319,600;  305,450
282,923;  262,513;  230,600;  262,450
283,012;  286,243;  268,600;  305,450
283,100;  263,914;  263,600;  230,450
283,188;  254,633;  244,600;  243,450
283,277;  279,874;  279,600;  282,450
283,365;  269,273;  252,600;  253,450
283,453;  259,953;  253,600;  228,450
283,542;  286,263;  293,600;  259,450
283,630;  274,904;  259,600;  271,450
283,718;  269,124;  271,600;  247,450
283,806;  237,734;  225,600;  226,450
283,894;  269,884;  276,600;  274,450
283,983;  278,974;  256,600;  279,450
284,071;  282,214;  307,600;  269,450
284,159;  298,384;  319,600;  305,450
284,247;  284,773;  296,600;  287,450
284,335;  280,564;  267,600;  263,450
284,424;  280,743;  287,600;  269,450
284,512;  279,904;  295,600;  248,450
284,600;  275,934;  261,600;  236,450
284,688;  309,904;  297,600;  325,450
284,776;  283,853;  259,600;  277,450
284,864;  303,293;  327,600;  300,450
284,952;  285,113;  291,600;  276,450
285,041;  292,023;  286,600;  304,450
285,129;  296,543;  304,600;  290,450
285,217;  298,374;  309,600;  280,450
285,305;  311,423;  297,600;  304,450
285,393;  270,763;  255,600;  268,450
285,481;  287,793;  292,600;  274,450
285,569;  276,534;  297,600;  281,450
285,657;  291,474;  272,600;  276,450
285,745;  286,534;  334,600;  282,450
285,833;  289,064;  277,600;  294,450
285,921;  295,634;  301,600;  299,450
286,009;  299,384;  308,600;  308,450
286,097;  291,124;  313,600;  288,450
286,185;  280,203;  294,600;  259,450
286,273;  273,353;  302,600;  257,450
286,361;  302,263;  322,600;  287,450
286,449;  289,353;  305,600;  260,450
286,537;  293,714;  300,600;  248,450
286,625;  285,523;  300,600;  275,450
286,713;  273,073;  262,600;  270,450
286,801;  302,624;  320,600;  307,450
286,889;  314,773;  304,600;  282,450
286,976;  283,453;  271,600;  266,450
287,064;  299,853;  297,600;  309,450
287,152;  301,384;  332,600;  299,450
287,240;  301,344;  297,600;  327,450
287,328;  278,023;  249,600;  245,450
287,416;  287,543;  295,600;  277,450
287,504;  291,754;  302,600;  274,450
287,591;  294,733;  317,600;  307,450
287,679;  279,823;  272,600;  275,450
287,767;  291,654;  270,600;  292,450
287,855;  299,823;  271,600;  284,450
287,943;  302,914;  312,600;  269,450
288,030;  281,583;  246,600;  293,450
288,118;  310,613;  325,600;  295,450
288,206;  273,353;  264,600;  290,450
288,294;  295,763;  273,600;  292,450
288,382;  295,513;  301,600;  288,450
288,469;  304,803;  324,600;  274,450
288,557;  284,583;  276,600;  275,450
288,645;  318,743;  321,600;  281,450
288,732;  272,194;  274,600;  276,450
288,820;  300,654;  334,600;  270,450
288,908;  297,323;  295,600;  295,450
288,995;  306,333;  295,600;  277,450
289,083;  288,094;  278,600;  278,450
289,171;  324,254;  328,600;  310,450
289,258;  375,154;  402,600;  311,450
289,346;  429,483;  433,600;  329,450
289,434;  307,194;  345,600;  318,450
289,521;  275,874;  298,600;  281,450
289,609;  315,344;  317,600;  309,450
289,697;  308,384;  310,600;  321,450
289,784;  292,434;  300,600;  284,450
289,872;  305,793;  314,600;  313,450
289,959;  276,353;  274,600;  262,450
290,047;  293,393;  268,600;  272,450
290,134;  267,823;  286,600;  264,450
290,222;  305,203;  317,600;  294,450
290,310;  303,643;  310,600;  280,450
290,397;  324,053;  302,600;  319,450
290,485;  286,904;  291,600;  284,450
290,572;  309,974;  286,600;  318,450
290,660;  297,393;  300,600;  293,450
290,747;  285,654;  292,600;  290,450
290,835;  292,784;  296,600;  321,450
290,922;  296,703;  307,600;  294,450
291,009;  292,603;  310,600;  283,450
291,097;  293,853;  305,600;  282,450
291,184;  327,164;  319,600;  313,450
291,272;  280,754;  297,600;  264,450
291,359;  280,023;  283,600;  283,450
291,447;  297,184;  294,600;  309,450
291,534;  317,043;  310,600;  315,450
291,621;  293,773;  261,600;  308,450
291,709;  277,823;  284,600;  270,450
291,796;  309,594;  313,600;  323,450
291,884;  287,293;  310,600;  308,450
291,971;  312,124;  306,600;  287,450
292,058;  281,714;  250,600;  294,450
292,146;  292,573;  293,600;  279,450
292,233;  275,314;  284,600;  243,450
292,320;  289,853;  294,600;  284,450
292,408;  306,184;  316,600;  297,450
292,495;  294,833;  302,600;  281,450
292,582;  283,464;  276,600;  273,450
292,669;  275,414;  273,600;  285,450
292,757;  274,814;  292,600;  288,450
292,844;  301,754;  305,600;  312,450
292,931;  272,654;  272,600;  266,450
293,018;  285,773;  267,600;  264,450
293,106;  293,923;  290,600;  324,450
293,193;  267,233;  265,600;  280,450
293,280;  293,853;  304,600;  310,450
293,367;  286,083;  279,600;  295,450
293,455;  289,113;  253,600;  248,450
293,542;  271,453;  264,600;  268,450
293,629;  274,664;  264,600;  272,450
293,716;  302,073;  341,600;  307,450
293,803;  278,944;  273,600;  279,450
293,890;  306,124;  284,600;  298,450
293,978;  279,983;  277,600;  266,450
294,065;  276,823;  293,600;  268,450
294,152;  298,434;  276,600;  315,450
294,239;  268,224;  294,600;  269,450
294,326;  281,493;  307,600;  277,450
294,413;  270,884;  280,600;  253,450
294,500;  289,134;  304,600;  286,450
294,587;  281,273;  291,600;  255,450
294,674;  300,803;  280,600;  314,450
294,761;  284,474;  283,600;  266,450
294,848;  284,884;  275,600;  288,450
294,935;  285,303;  281,600;  279,450
295,022;  261,594;  269,600;  243,450
295,109;  254,663;  259,600;  253,450
295,196;  285,284;  297,600;  309,450
295,283;  271,124;  295,600;  256,450
295,370;  303,404;  318,600;  307,450
295,457;  284,243;  266,600;  285,450
295,544;  278,363;  277,600;  264,450
295,631;  288,284;  282,600;  272,450
295,718;  265,453;  279,600;  248,450
295,805;  295,483;  298,600;  281,450
295,892;  295,833;  314,600;  274,450
295,979;  291,664;  294,600;  284,450
296,066;  294,073;  306,600;  278,450
296,153;  293,363;  313,600;  324,450
296,240;  297,053;  312,600;  282,450
296,327;  289,173;  286,600;  257,450
296,413;  313,053;  316,600;  272,450
296,500;  331,844;  330,600;  261,450
296,587;  548,123;  534,600;  268,450
296,674; 1701,163; 1749,600;  263,450
296,761;  768,714;  786,600;  252,450
296,848;  293,823;  299,600;  274,450
296,934;  292,404;  296,600;  274,450
297,021;  286,184;  286,600;  266,450
297,108;  271,643;  310,600;  269,450
297,195;  287,113;  276,600;  268,450
297,282;  282,184;  295,600;  273,450
297,368;  303,124;  297,600;  347,450
297,455;  275,404;  284,600;  259,450
297,542;  306,603;  330,600;  316,450
297,629;  294,453;  315,600;  290,450
297,715;  302,323;  309,600;  306,450
297,802;  294,273;  286,600;  273,450
297,889;  307,814;  307,600;  319,450
297,975;  322,634;  326,600;  320,450
298,062;  306,434;  325,600;  301,450
298,149;  268,773;  300,600;  269,450
298,235;  290,064;  286,600;  308,450
298,322;  288,814;  287,600;  291,450
298,409;  305,273;  340,600;  304,450
298,495;  274,733;  282,600;  250,450
298,582;  304,374;  303,600;  304,450
298,669;  287,793;  290,600;  290,450
298,755;  292,224;  295,600;  281,450
298,842;  297,164;  315,600;  314,450
298,928;  295,513;  298,600;  281,450
299,015;  290,944;  287,600;  296,450
299,102;  312,154;  306,600;  309,450
299,188;  310,523;  307,600;  292,450
299,275;  302,624;  313,600;  289,450
299,361;  272,893;  274,600;  256,450
299,448;  299,504;  283,600;  278,450
299,534;  304,613;  328,600;  282,450
299,621;  300,703;  323,600;  302,450
299,707;  296,273;  298,600;  298,450
299,794;  313,203;  318,600;  322,450
299,880;  311,333;  301,600;  313,450
299,967;  290,184;  285,600;  251,450
300,053;  289,243;  301,600;  301,450
300,140;  322,254;  314,600;  315,450
300,226;  301,763;  320,600;  297,450
300,312;  300,543;  310,600;  306,450
300,399;  300,073;  290,600;  309,450
300,485;  293,603;  310,600;  268,450
300,572;  272,243;  272,600;  257,450
300,658;  288,353;  299,600;  272,450
300,744;  302,513;  310,600;  301,450
300,831;  306,703;  302,600;  292,450
300,917;  311,423;  298,600;  310,450
301,004;  304,053;  299,600;  288,450
301,090;  268,534;  279,600;  254,450
301,176;  279,083;  284,600;  254,450
301,263;  307,944;  322,600;  282,450
301,349;  284,504;  294,600;  273,450
301,435;  275,733;  267,600;  268,450
301,521;  308,914;  323,600;  301,450
301,608;  307,513;  311,600;  319,450
301,694;  291,314;  304,600;  283,450
301,780;  295,673;  296,600;  288,450
301,867;  280,594;  281,600;  274,450
301,953;  300,684;  289,600;  304,450
302,039;  387,743;  409,600;  273,450
302,125;  533,544;  539,600;  281,450
302,211;  354,684;  349,600;  300,450
302,298;  342,904;  374,600;  261,450
302,384;  290,203;  296,600;  238,450
302,470;  285,083;  280,600;  280,450
302,556;  296,944;  331,600;  294,450
302,642;  290,374;  286,600;  226,450
302,729;  292,863;  300,600;  270,450
302,815;  311,714;  299,600;  269,450
302,901;  285,743;  267,600;  294,450
302,987;  302,333;  299,600;  293,450
303,073;  295,043;  284,600;  283,450
303,159;  288,733;  295,600;  305,450
303,245;  280,754;  279,600;  256,450
303,331;  275,353;  281,600;  277,450
303,417;  293,013;  283,600;  328,450
303,503;  302,594;  331,600;  293,450
303,590;  283,803;  289,600;  272,450
303,676;  296,124;  289,600;  302,450
303,762;  281,944;  288,600;  270,450
303,848;  304,893;  295,600;  316,450
303,934;  301,434;  323,600;  286,450
304,020;  297,914;  304,600;  288,450
304,106;  309,743;  318,600;  287,450
304,192;  288,464;  265,600;  275,450
304,278;  296,203;  297,600;  304,450
304,364;  319,603;  327,600;  303,450
304,450;  295,344;  283,600;  288,450
304,535;  294,714;  304,600;  295,450
304,621;  292,404;  302,600;  309,450
304,707;  298,613;  294,600;  296,450
304,793;  311,714;  323,600;  295,450
304,879;  298,993;  305,600;  292,450
304,965;  306,434;  297,600;  273,450
305,051;  303,654;  310,600;  260,450
305,137;  314,423;  266,600;  314,450
305,223;  287,254;  299,600;  301,450
305,309;  307,823;  306,600;  306,450
305,394;  306,423;  266,600;  282,450
305,480;  293,634;  298,600;  266,450
305,566;  299,634;  280,600;  297,450
305,652;  307,053;  297,600;  308,450
305,738;  343,573;  332,600;  315,450
305,824;  302,874;  280,600;  303,450
305,909;  317,374;  338,600;  301,450
305,995;  282,333;  267,600;  268,450
306,081;  338,113;  368,600;  334,450
306,167;  297,573;  287,600;  311,450
306,252;  317,203;  319,600;  311,450
306,338;  327,944;  332,600;  332,450
306,424;  297,654;  315,600;  260,450
306,510;  309,143;  355,600;  305,450
306,595;  314,733;  303,600;  335,450
306,681;  306,064;  321,600;  287,450
306,767;  297,194;  313,600;  286,450
306,852;  322,263;  337,600;  314,450
306,938;  317,083;  291,600;  336,450
307,024;  293,694;  281,600;  321,450
307,109;  324,863;  340,600;  327,450
307,195;  308,113;  318,600;  337,450
307,281;  310,523;  322,600;  315,450
307,366;  305,964;  319,600;  284,450
307,452;  305,893;  292,600;  312,450
307,537;  282,733;  289,600;  281,450
307,623;  285,884;  272,600;  282,450
307,709;  302,664;  302,600;  325,450
307,794;  280,863;  293,600;  258,450
307,880;  311,124;  321,600;  320,450
307,965;  301,504;  278,600;  274,450
308,051;  286,743;  263,600;  305,450
308,136;  290,493;  314,600;  260,450
308,222;  294,573;  306,600;  301,450
308,307;  284,284;  286,600;  312,450
308,393;  292,964;  294,600;  285,450
308,478;  307,733;  321,600;  308,450
308,564;  284,474;  280,600;  276,450
308,649;  302,194;  308,600;  304,450
308,735;  290,573;  320,600;  278,450
308,820;  310,643;  328,600;  304,450
308,906;  288,643;  298,600;  272,450
308,991;  328,743;  339,600;  314,450
309,076;  310,853;  335,600;  290,450
309,162;  275,154;  265,600;  245,450
309,247;  300,743;  297,600;  288,450
309,333;  286,103;  284,600;  286,450
309,418;  293,833;  281,600;  297,450
309,503;  291,583;  301,600;  289,450
309,589;  293,773;  308,600;  306,450
309,674;  283,154;  274,600;  268,450
309,759;  296,983;  291,600;  289,450
309,845;  304,763;  290,600;  312,450
309,930;  300,583;  292,600;  288,450
310,015;  270,073;  257,600;  251,450
310,101;  307,754;  282,600;  296,450
310,186;  278,724;  267,600;  298,450
310,271;  291,893;  298,600;  286,450
310,357;  288,243;  265,600;  286,450
310,442;  296,414;  288,600;  263,450
310,527;  293,154;  288,600;  306,450
310,612;  274,823;  291,600;  253,450
310,698;  310,233;  282,600;  275,450
310,783;  296,493;  288,600;  279,450
310,868;  287,273;  313,600;  263,450
310,953;  276,534;  269,600;  293,450
311,038;  302,513;  289,600;  286,450
311,124;  288,523;  296,600;  277,450
311,209;  268,914;  293,600;  291,450
311,294;  306,184;  306,600;  303,450
311,379;  271,504;  254,600;  258,450
311,464;  292,613;  302,600;  291,450
311,549;  278,724;  277,600;  294,450
311,634;  280,763;  284,600;  275,450
311,719;  311,453;  308,600;  309,450
311,805;  285,513;  308,600;  275,450
311,890;  295,053;  308,600;  261,450
311,975;  287,513;  262,600;  283,450
312,060;  302,543;  321,600;  289,450
312,145;  280,784;  277,600;  262,450
312,230;  309,934;  313,600;  285,450
312,315;  321,814;  325,600;  262,450
312,400;  400,784;  404,600;  303,450
312,485; 1687,923; 1668,600;  292,450
312,570; 1218,504; 1232,600;  239,450
312,655;  340,784;  342,600;  282,450
312,740;  317,273;  312,600;  289,450
312,825;  331,703;  329,600;  301,450
312,910;  345,004;  343,600;  278,450
312,995;  437,914;  443,600;  325,450
313,080; 2129,444; 2082,600;  265,450
313,165; 2159,894; 2149,600;  310,450
313,250;  356,103;  308,600;  276,450
313,335;  319,844;  321,600;  307,450
313,419;  272,483;  269,600;  242,450
313,504;  317,243;  304,600;  286,450
313,589;  298,944;  272,600;  277,450
313,674;  306,034;  303,600;  290,450
313,759;  283,214;  274,600;  273,450
313,844;  291,483;  276,600;  289,450
313,929;  292,513;  295,600;  285,450
314,014;  311,034;  307,600;  320,450
314,098;  296,143;  321,600;  305,450
314,183;  264,173;  258,600;  260,450
314,268;  291,643;  295,600;  290,450
314,353;  300,714;  287,600;  290,450
314,438;  305,733;  287,600;  294,450
314,522;  304,643;  272,600;  306,450
314,607;  301,573;  282,600;  302,450
314,692;  297,763;  291,600;  301,450
314,777;  281,523;  291,600;  279,450
314,861;  271,603;  293,600;  263,450
314,946;  306,904;  321,600;  303,450
315,031;  284,534;  284,600;  267,450
315,115;  300,553;  309,600;  318,450
315,200;  306,323;  301,600;  285,450
315,285;  282,714;  278,600;  275,450
315,369;  281,643;  282,600;  273,450
315,454;  302,184;  291,600;  305,450
315,539;  302,594;  280,600;  283,450
315,623;  302,374;  308,600;  292,450
315,708;  329,884;  326,600;  315,450
315,793;  290,263;  318,600;  308,450
315,877;  298,004;  311,600;  282,450
315,962;  283,603;  263,600;  283,450
316,046;  310,603;  327,600;  298,450
316,131;  329,513;  334,600;  313,450
316,216;  300,414;  308,600;  288,450
316,300;  293,784;  307,600;  281,450
316,385;  317,284;  301,600;  319,450
316,469;  324,344;  335,600;  331,450
316,554;  289,474;  290,600;  288,450
316,638;  287,904;  297,600;  286,450
316,723;  287,013;  285,600;  262,450
316,807;  289,923;  268,600;  273,450
316,892;  282,513;  293,600;  275,450
316,976;  306,513;  298,600;  318,450
317,061;  301,964;  282,600;  309,450
317,145;  318,564;  316,600;  315,450
317,230;  311,914;  309,600;  304,450
317,314;  268,844;  264,600;  259,450
317,398;  306,884;  280,600;  323,450
317,483;  280,353;  312,600;  266,450
317,567;  310,964;  299,600;  317,450
317,652;  276,733;  280,600;  244,450
317,736;  298,934;  277,600;  329,450
317,820;  325,124;  343,600;  287,450
317,905;  302,504;  311,600;  289,450
317,989;  288,273;  303,600;  312,450
318,073;  290,474;  281,600;  280,450
318,158;  279,664;  262,600;  284,450
318,242;  290,914;  297,600;  269,450
318,326;  279,053;  265,600;  260,450
318,411;  286,694;  263,600;  290,450
318,495;  278,823;  274,600;  286,450
318,579;  280,634;  264,600;  266,450
318,664;  272,893;  284,600;  242,450
318,748;  297,353;  290,600;  266,450
318,832;  278,583;  261,600;  263,450
318,916;  266,523;  272,600;  263,450
319,001;  296,254;  287,600;  299,450
319,085;  283,684;  265,600;  265,450
319,169;  285,643;  304,600;  285,450
319,253;  282,624;  270,600;  271,450
319,337;  300,083;  311,600;  265,450
319,422;  307,284;  329,600;  325,450
319,506;  279,293;  282,600;  264,450
319,590;  302,263;  303,600;  320,450
319,674;  287,964;  326,600;  301,450
319,758;  295,853;  277,600;  278,450
319,842;  299,703;  280,600;  290,450
319,926;  284,833;  268,600;  280,450
320,010;  261,863;  267,600;  226,450
320,095;  277,823;  284,600;  274,450
320,179;  271,284;  270,600;  263,450
320,263;  274,273;  259,600;  265,450
320,347;  264,654;  217,600;  260,450
320,431;  265,964;  267,600;  245,450
320,515;  287,624;  297,600;  267,450
320,599;  263,714;  274,600;  263,450
320,683;  298,754;  295,600;  306,450
320,767;  257,073;  246,600;  230,450
320,851;  275,784;  247,600;  282,450
320,935;  308,363;  294,600;  317,450
321,019;  285,564;  258,600;  297,450
321,103;  270,773;  319,600;  295,450
321,187;  266,404;  272,600;  303,450
321,271;  283,284;  299,600;  251,450
321,355;  276,013;  290,600;  264,450
321,439;  288,884;  282,600;  306,450
321,523;  273,923;  285,600;  287,450
321,606;  281,423;  289,600;  301,450
321,690;  278,203;  285,600;  261,450
321,774;  283,314;  284,600;  286,450
321,858;  280,393;  300,600;  283,450
321,942;  289,583;  298,600;  291,450
322,026;  276,113;  296,600;  280,450
322,110;  287,393;  286,600;  264,450
322,194;  290,733;  279,600;  293,450
322,277;  276,784;  287,600;  257,450
322,361;  267,993;  260,600;  265,450
322,445;  284,284;  285,600;  252,450
322,529;  286,754;  298,600;  264,450
322,613;  290,453;  273,600;  262,450
322,696;  263,893;  287,600;  266,450
322,780;  276,714;  303,600;  256,450
322,864;  267,233;  310,600;  288,450
322,948;  285,493;  262,600;  270,450
323,031;  274,444;  268,600;  269,450
323,115;  277,344;  299,600;  257,450
323,199;  287,323;  291,600;  268,450
323,282;  300,523;  284,600;  302,450
323,366;  283,184;  280,600;  307,450
323,450;  267,914;  241,600;  266,450
323,533;  308,023;  309,600;  308,450
323,617;  261,654;  243,600;  238,450
323,701;  273,833;  239,600;  257,450
323,784;  288,184;  305,600;  289,450
323,868;  288,323;  302,600;  285,450
323,952;  288,184;  276,600;  272,450
324,035;  298,534;  295,600;  297,450
324,119;  290,113;  285,600;  262,450
324,202;  284,944;  280,600;  298,450
324,286;  280,993;  236,600;  286,450
324,370;  285,194;  291,600;  274,450
324,453;  294,803;  287,600;  296,450
324,537;  287,214;  280,600;  281,450
324,620;  281,004;  295,600;  303,450
324,704;  262,263;  281,600;  261,450
324,787;  286,103;  295,600;  267,450
324,871;  303,573;  293,600;  314,450
324,954;  307,874;  299,600;  318,450
325,038;  299,754;  299,600;  301,450
325,121;  305,964;  302,600;  316,450
325,205;  281,083;  273,600;  277,450
325,288;  275,134;  280,600;  269,450
325,371;  291,724;  275,600;  285,450
325,455;  308,333;  289,600;  302,450
325,538;  280,543;  292,600;  308,450
325,622;  318,263;  302,600;  306,450
325,705;  290,594;  303,600;  300,450
325,788;  307,434;  297,600;  298,450
325,872;  291,654;  264,600;  279,450
325,955;  313,914;  305,600;  300,450
326,039;  299,243;  290,600;  313,450
326,122;  305,504;  277,600;  288,450
326,205;  303,323;  320,600;  299,450
326,289;  309,763;  313,600;  313,450
326,372;  289,504;  310,600;  288,450
326,455;  319,953;  322,600;  318,450
326,538;  311,983;  312,600;  306,450
326,622;  308,874;  285,600;  313,450
326,705;  280,853;  272,600;  290,450
326,788;  315,513;  288,600;  324,450
326,871;  312,754;  286,600;  281,450
326,955;  309,634;  293,600;  333,450
327,038;  299,594;  304,600;  284,450
327,121;  298,064;  313,600;  303,450
327,204;  310,064;  315,600;  298,450
327,288;  322,073;  326,600;  328,450
327,371;  285,934;  286,600;  294,450
327,454;  307,004;  303,600;  316,450
327,537;  289,884;  272,600;  285,450
327,620;  320,414;  327,600;  309,450
327,703;  305,393;  308,600;  314,450
327,786;  303,823;  320,600;  319,450
327,870;  318,353;  321,600;  308,450
327,953;  296,694;  307,600;  296,450
328,036;  292,534;  291,600;  264,450
328,119;  312,263;  345,600;  299,450
328,202;  296,464;  305,600;  287,450
328,285;  320,714;  336,600;  306,450
328,368;  313,983;  335,600;  328,450
328,451;  312,374;  325,600;  334,450
328,534;  297,243;  292,600;  283,450
328,617;  298,673;  290,600;  281,450
328,700;  318,743;  325,600;  327,450
328,783;  315,923;  319,600;  292,450
328,866;  310,664;  294,600;  287,450
328,949;  319,214;  341,600;  325,450
329,032;  293,214;  292,600;  308,450
329,115;  283,983;  288,600;  279,450
329,198;  275,034;  265,600;  282,450
329,281;  294,263;  310,600;  277,450
329,364;  308,754;  300,600;  330,450
329,447;  302,763;  303,600;  300,450
329,530;  317,934;  321,600;  317,450
329,613;  297,164;  302,600;  289,450
329,696;  322,983;  308,600;  298,450
329,778;  306,784;  313,600;  293,450
329,861;  292,934;  309,600;  288,450
329,944;  318,833;  326,600;  272,450
330,027;  307,613;  312,600;  296,450
330,110;  303,844;  305,600;  313,450
330,193;  288,543;  284,600;  300,450
330,275;  305,714;  290,600;  298,450
330,358;  287,874;  278,600;  298,450
330,441;  317,754;  307,600;  326,450
330,524;  301,233;  322,600;  298,450
330,607;  296,863;  281,600;  304,450
330,689;  307,573;  278,600;  321,450
330,772;  302,654;  290,600;  305,450
330,855;  321,273;  329,600;  287,450
330,938;  316,164;  332,600;  319,450
331,020;  313,523;  298,600;  292,450
331,103;  290,993;  280,600;  310,450
331,186;  300,094;  298,600;  286,450
331,268;  290,974;  280,600;  269,450
331,351;  309,853;  285,600;  311,450
331,434;  304,594;  296,600;  316,450
331,516;  308,763;  313,600;  329,450
331,599;  302,474;  266,600;  255,450
331,682;  301,893;  301,600;  302,450
331,764;  285,814;  308,600;  261,450
331,847;  310,374;  311,600;  310,450
331,929;  286,214;  286,600;  278,450
332,012;  304,814;  296,600;  295,450
332,095;  318,483;  348,600;  317,450
332,177;  315,073;  353,600;  324,450
332,260;  320,893;  349,600;  345,450
332,342;  304,064;  310,600;  291,450
332,425;  304,974;  301,600;  293,450
332,507;  303,023;  239,600;  316,450
332,590;  284,784;  274,600;  280,450
332,672;  287,094;  310,600;  264,450
332,755;  302,654;  320,600;  233,450
332,837;  300,113;  286,600;  274,450
332,920;  304,444;  315,600;  298,450
333,002;  318,773;  308,600;  306,450
333,085;  306,814;  308,600;  298,450
333,167;  289,743;  275,600;  266,450
333,249;  289,564;  276,600;  277,450
333,332;  283,453;  275,600;  279,450
333,414;  293,964;  317,600;  295,450
333,497;  297,964;  315,600;  305,450
333,579;  295,754;  303,600;  307,450
333,661;  315,303;  319,600;  286,450
333,744;  289,624;  265,600;  243,450
333,826;  302,303;  302,600;  293,450
333,908;  313,573;  329,600;  332,450
333,991;  300,224;  253,600;  285,450
334,073;  468,863;  503,600;  321,450
334,155;  348,323;  360,600;  289,450
334,238;  315,344;  314,600;  286,450
334,320;  294,333;  296,600;  270,450
334,402;  298,464;  298,600;  292,450
334,485;  295,884;  305,600;  282,450
334,567;  292,434;  301,600;  262,450
334,649;  272,634;  266,600;  273,450
334,731;  307,474;  287,600;  285,450
334,813;  310,444;  346,600;  352,450
334,896;  284,203;  296,600;  287,450
334,978;  298,263;  302,600;  283,450
335,060;  299,453;  306,600;  296,450
335,142;  293,384;  265,600;  306,450
335,224;  303,263;  308,600;  310,450
335,307;  290,423;  277,600;  275,450
335,389;  305,884;  302,600;  315,450
335,471;  296,384;  300,600;  282,450
335,553;  312,803;  308,600;  317,450
335,635;  305,853;  303,600;  277,450
335,717;  291,934;  280,600;  305,450
335,799;  314,724;  314,600;  325,450
335,881;  268,724;  271,600;  251,450
335,963;  283,853;  283,600;  278,450
336,045;  288,884;  281,600;  276,450
336,128;  265,314;  281,600;  268,450
336,210;  284,043;  284,600;  250,450
336,292;  290,884;  301,600;  283,450
336,374;  295,784;  307,600;  287,450
336,456;  279,254;  290,600;  258,450
336,538;  299,914;  288,600;  304,450
336,620;  302,793;  325,600;  305,450
336,702;  282,154;  308,600;  309,450
336,783;  300,314;  299,600;  289,450
336,865;  298,613;  302,600;  303,450
336,947;  305,103;  299,600;  302,450
337,029;  274,143;  252,600;  262,450
337,111;  308,793;  309,600;  328,450
337,193;  276,303;  257,600;  250,450
337,275;  305,444;  302,600;  291,450
337,357;  314,224;  299,600;  305,450
337,439;  302,793;  299,600;  277,450
337,521;  272,034;  274,600;  268,450
337,602;  294,703;  280,600;  295,450
337,684;  307,314;  302,600;  341,450
337,766;  301,483;  301,600;  288,450
337,848;  293,023;  309,600;  318,450
337,930;  294,194;  300,600;  300,450
338,012;  293,254;  257,600;  295,450
338,093;  307,004;  302,600;  312,450
338,175;  311,654;  308,600;  308,450
338,257;  301,594;  296,600;  243,450
338,339;  287,773;  303,600;  248,450
338,420;  300,934;  304,600;  329,450
338,502;  290,423;  292,600;  292,450
338,584;  278,763;  261,600;  270,450
338,666;  297,523;  293,600;  301,450
338,747;  324,993;  337,600;  324,450
338,829;  300,874;  301,600;  300,450
338,911;  289,904;  281,600;  284,450
338,992;  286,523;  292,600;  299,450
339,074;  298,344;  300,600;  274,450
339,156;  292,613;  308,600;  302,450
339,237;  322,833;  344,600;  320,450
339,319;  287,833;  298,600;  284,450
339,400;  303,763;  301,600;  313,450
339,482;  271,124;  291,600;  259,450
339,564;  309,414;  337,600;  315,450
339,645;  298,844;  283,600;  306,450
339,727;  282,784;  284,600;  278,450
339,808;  316,273;  306,600;  320,450
339,890;  291,823;  285,600;  277,450
339,971;  306,263;  318,600;  299,450
340,053;  329,203;  327,600;  339,450
340,134;  290,814;  287,600;  283,450
340,216;  308,203;  294,600;  302,450
340,297;  292,974;  330,600;  312,450
340,379;  310,314;  344,600;  301,450
340,460;  300,613;  275,600;  299,450
340,542;  288,254;  307,600;  263,450
340,623;  306,493;  306,600;  325,450
340,705;  285,983;  306,600;  262,450
340,786;  283,053;  299,600;  288,450
340,868;  298,694;  299,600;  313,450
340,949;  275,914;  279,600;  269,450
341,030;  320,493;  330,600;  312,450
341,112;  277,073;  256,600;  269,450
341,193;  267,013;  287,600;  248,450
341,274;  314,853;  325,600;  312,450
341,356;  315,284;  329,600;  300,450
341,437;  291,303;  292,600;  284,450
341,518;  301,743;  313,600;  322,450
341,600;  314,344;  321,600;  324,450
341,681;  322,023;  316,600;  308,450
341,762;  318,384;  316,600;  314,450
341,844;  280,914;  271,600;  280,450
341,925;  301,453;  304,600;  329,450
342,006;  314,404;  314,600;  322,450
342,087;  285,013;  291,600;  308,450
342,169;  298,243;  301,600;  297,450
342,250;  282,333;  303,600;  250,450
342,331;  287,323;  291,600;  268,450
342,412;  303,904;  304,600;  283,450
342,493;  283,013;  279,600;  266,450
342,575;  324,263;  298,600;  308,450
342,656;  311,743;  343,600;  319,450
342,737;  321,833;  331,600;  316,450
342,818;  296,483;  319,600;  291,450
342,899;  307,724;  309,600;  295,450
342,980;  298,184;  306,600;  302,450
343,061;  295,143;  297,600;  279,450
343,143;  309,853;  299,600;  310,450
343,224;  302,673;  297,600;  287,450
343,305;  293,053;  294,600;  273,450
343,386;  293,243;  290,600;  295,450
343,467;  292,904;  306,600;  295,450
343,548;  296,303;  307,600;  271,450
343,629;  309,974;  348,600;  311,450
343,710;  318,214;  354,600;  330,450
343,791;  316,243;  296,600;  295,450
343,872;  290,603;  314,600;  271,450
343,953;  308,393;  323,600;  303,450
344,034;  308,513;  307,600;  307,450
344,115;  298,254;  298,600;  295,450
344,196;  290,103;  295,600;  273,450
344,277;  288,464;  282,600;  299,450
344,358;  299,384;  279,600;  295,450
344,439;  286,043;  281,600;  287,450
344,520;  289,583;  310,600;  269,450
344,601;  306,523;  319,600;  332,450
344,681;  294,384;  312,600;  315,450
344,762;  279,814;  275,600;  257,450
344,843;  272,964;  300,600;  255,450
344,924;  303,374;  252,600;  290,450
345,005;  283,513;  269,600;  286,450
345,086;  299,613;  301,600;  289,450
345,167;  286,773;  299,600;  282,450
345,247;  318,154;  305,600;  327,450
345,328;  311,714;  287,600;  317,450
345,409;  301,934;  280,600;  307,450
345,490;  304,953;  314,600;  310,450
345,571;  297,844;  293,600;  295,450
345,651;  272,453;  260,600;  335,450
345,732;  297,523;  303,600;  286,450
345,813;  308,333;  285,600;  291,450
345,894;  277,714;  254,600;  279,450
345,974;  300,073;  346,600;  305,450
346,055;  284,733;  275,600;  291,450
346,136;  298,194;  311,600;  287,450
346,216;  319,844;  312,600;  345,450
346,297;  297,823;  294,600;  289,450
346,378;  286,243;  270,600;  300,450
346,458;  301,964;  299,600;  271,450
346,539;  295,393;  295,600;  315,450
346,620;  301,504;  301,600;  312,450
346,700;  279,814;  302,600;  258,450
346,781;  276,124;  252,600;  260,450
346,861;  296,874;  283,600;  301,450
346,942;  296,823;  273,600;  319,450
347,023;  308,043;  302,600;  306,450
347,103;  291,803;  296,600;  287,450
347,184;  293,844;  321,600;  294,450
347,264;  286,684;  289,600;  310,450
347,345;  284,113;  280,600;  281,450
347,425;  281,684;  270,600;  295,450
347,506;  277,493;  283,600;  283,450
347,586;  282,613;  258,600;  283,450
347,667;  296,263;  316,600;  299,450
347,747;  303,874;  307,600;  304,450
347,828;  290,103;  308,600;  271,450
347,908;  299,444;  307,600;  307,450
347,988;  290,134;  296,600;  251,450
348,069;  304,754;  295,600;  305,450
348,149;  299,353;  303,600;  276,450
348,230;  303,923;  297,600;  301,450
348,310;  278,833;  291,600;  301,450
348,390;  279,243;  285,600;  267,450
348,471;  297,314;  299,600;  270,450
348,551;  282,154;  289,600;  264,450
348,632;  283,993;  288,600;  278,450
348,712;  282,233;  281,600;  278,450
348,792;  322,423;  352,600;  333,450
348,873;  275,953;  293,600;  249,450
348,953;  282,583;  278,600;  330,450
349,033;  294,243;  285,600;  311,450
349,113;  276,154;  278,600;  277,450
349,194;  302,664;  289,600;  310,450
349,274;  300,414;  300,600;  310,450
349,354;  298,243;  288,600;  285,450
349,434;  295,763;  300,600;  299,450
349,515;  307,023;  310,600;  320,450
349,595;  297,194;  308,600;  287,450
349,675;  304,284;  289,600;  299,450
349,755;  292,724;  325,600;  280,450
349,835;  300,194;  305,600;  309,450
349,916;  293,053;  298,600;  284,450
349,996;  285,414;  287,600;  253,450
350,076;  304,523;  286,600;  315,450
350,156;  280,534;  272,600;  280,450
350,236;  307,594;  292,600;  316,450
350,316;  286,823;  296,600;  282,450
350,396;  299,333;  283,600;  306,450
350,476;  294,164;  308,600;  275,450
350,556;  290,353;  275,600;  290,450
350,637;  315,904;  331,600;  312,450
350,717;  285,654;  269,600;  287,450
350,797;  296,564;  307,600;  305,450
350,877;  284,803;  305,600;  323,450
350,957;  291,743;  285,600;  291,450
351,037;  300,953;  303,600;  298,450
351,117;  292,874;  304,600;  275,450
351,197;  297,043;  331,600;  302,450
351,277;  292,314;  328,600;  277,450
351,357;  305,793;  322,600;  293,450
351,437;  299,624;  299,600;  283,450
351,516;  313,363;  337,600;  283,450
351,596;  286,643;  291,600;  329,450
351,676;  282,194;  269,600;  284,450
351,756;  319,214;  308,600;  326,450
351,836;  310,233;  285,600;  329,450
351,916;  295,643;  324,600;  287,450
351,996;  299,203;  313,600;  318,450
352,076;  295,423;  288,600;  302,450
352,156;  313,344;  317,600;  297,450
352,235;  293,733;  310,600;  304,450
352,315;  304,953;  313,600;  339,450
352,395;  304,293;  306,600;  277,450
352,475;  310,953;  339,600;  287,450
352,555;  326,154;  362,600;  344,450
352,634;  317,423;  304,600;  344,450
352,714;  298,393;  310,600;  263,450
352,794;  348,874;  334,600;  364,450
352,874;  311,173;  335,600;  339,450
352,953;  332,923;  336,600;  318,450
353,033;  313,143;  317,600;  344,450
353,113;  327,964;  360,600;  341,450
353,193;  317,743;  314,600;  334,450
353,272;  324,534;  295,600;  329,450
353,352;  308,214;  303,600;  275,450
353,432;  339,094;  324,600;  344,450
353,511;  321,833;  323,600;  302,450
353,591;  354,793;  352,600;  347,450
353,671;  326,793;  335,600;  320,450
353,750;  324,134;  311,600;  311,450
353,830;  311,013;  319,600;  296,450
353,909;  336,184;  335,600;  341,450
353,989;  308,934;  309,600;  297,450
354,069;  313,773;  315,600;  318,450
354,148;  333,214;  341,600;  323,450
354,228;  308,064;  315,600;  300,450
354,307;  326,363;  313,600;  312,450
354,387;  315,493;  316,600;  326,450
354,466;  307,523;  319,600;  299,450
354,546;  330,504;  314,600;  347,450
354,625;  314,053;  341,600;  324,450
354,705;  315,073;  272,600;  330,450
354,784;  315,553;  301,600;  303,450
354,864;  311,333;  309,600;  305,450
354,943;  329,763;  340,600;  339,450
355,023;  305,694;  288,600;  314,450
355,102;  357,594;  337,600;  333,450
355,181;  313,434;  328,600;  329,450
355,261;  333,043;  314,600;  344,450
355,340;  298,363;  301,600;  307,450
355,420;  336,823;  325,600;  327,450
355,499;  318,064;  294,600;  326,450
355,578;  312,064;  321,600;  324,450
355,658;  325,893;  310,600;  346,450
355,737;  315,303;  312,600;  309,450
355,816;  318,103;  330,600;  333,450
355,896;  311,374;  300,600;  301,450
355,975;  303,434;  308,600;  294,450
356,054;  302,474;  316,600;  285,450
356,133;  287,184;  287,600;  314,450
356,213;  320,083;  318,600;  292,450
356,292;  297,483;  297,600;  276,450
356,371;  307,004;  331,600;  297,450
356,451;  318,273;  345,600;  294,450
356,530;  346,333;  357,600;  319,450
356,609;  310,863;  306,600;  286,450
356,688;  312,853;  314,600;  298,450
356,767;  299,344;  299,600;  290,450
356,846;  320,803;  346,600;  295,450
356,926;  334,534;  342,600;  361,450
357,005;  312,934;  332,600;  321,450
357,084;  296,694;  318,600;  321,450
357,163;  313,694;  335,600;  341,450
357,242;  313,664;  286,600;  337,450
357,321;  307,344;  322,600;  296,450
357,400;  313,393;  305,600;  310,450
357,479;  313,564;  336,600;  292,450
357,559;  318,823;  325,600;  314,450
357,638;  296,624;  312,600;  292,450
357,717;  305,254;  322,600;  304,450
357,796;  322,493;  348,600;  323,450
357,875;  305,434;  333,600;  316,450
357,954;  306,053;  312,600;  285,450
358,033;  312,733;  311,600;  278,450
358,112;  323,583;  302,600;  300,450
358,191;  306,714;  313,600;  289,450
358,270;  292,654;  266,600;  300,450
358,349;  314,344;  291,600;  324,450
358,428;  318,404;  321,600;  335,450
358,507;  322,113;  348,600;  306,450
358,585;  316,004;  318,600;  326,450
358,664;  330,043;  318,600;  340,450
358,743;  323,853;  293,600;  304,450
358,822;  327,314;  354,600;  329,450
358,901;  304,004;  275,600;  303,450
358,980;  305,613;  308,600;  299,450
359,059;  324,733;  326,600;  326,450
359,138;  325,203;  308,600;  324,450
359,216;  319,263;  320,600;  314,450
359,295;  304,483;  325,600;  329,450
359,374;  328,233;  335,600;  301,450
359,453;  313,654;  340,600;  315,450
359,532;  300,474;  307,600;  310,450
359,610;  314,374;  315,600;  307,450
359,689;  327,263;  324,600;  330,450
359,768;  308,543;  305,600;  294,450
359,847;  299,553;  313,600;  287,450
359,925;  300,523;  303,600;  315,450
360,004;  295,603;  295,600;  289,450
360,083;  312,363;  299,600;  319,450
360,161;  300,833;  314,600;  285,450
360,240;  285,523;  272,600;  289,450
360,319;  308,803;  323,600;  309,450
360,397;  320,504;  313,600;  320,450
360,476;  310,664;  291,600;  325,450
360,555;  340,893;  334,600;  340,450
360,633;  297,904;  287,600;  300,450
360,712;  305,483;  299,600;  264,450
360,790;  328,224;  314,600;  320,450
360,869;  306,064;  297,600;  296,450
360,948;  315,793;  278,600;  334,450
361,026;  296,333;  321,600;  276,450
361,105;  305,013;  305,600;  290,450
361,183;  316,154;  294,600;  286,450
361,262;  296,194;  300,600;  280,450
361,340;  302,043;  318,600;  297,450
361,419;  281,314;  282,600;  250,450
361,497;  340,374;  300,600;  335,450
361,576;  312,423;  292,600;  315,450
361,654;  341,703;  361,600;  322,450
361,733;  287,263;  320,600;  300,450
361,811;  323,453;  320,600;  311,450
361,890;  289,113;  267,600;  289,450
361,968;  311,464;  269,600;  303,450
362,046;  331,884;  334,600;  321,450
362,125;  334,793;  353,600;  326,450
362,203;  312,904;  297,600;  287,450
362,282;  326,953;  319,600;  338,450
362,360;  314,103;  296,600;  307,450
362,438;  311,483;  310,600;  302,450
362,517;  355,194;  346,600;  347,450
362,595;  335,504;  312,600;  351,450
362,673;  329,634;  323,600;  317,450
362,752;  323,073;  349,600;  327,450
362,830;  338,654;  338,600;  349,450
362,908;  316,803;  310,600;  307,450
362,986;  331,083;  335,600;  315,450
363,065;  323,293;  313,600;  344,450
363,143;  357,083;  354,600;  367,450
363,221;  316,504;  302,600;  288,450
363,299;  310,884;  304,600;  309,450
363,378;  323,694;  297,600;  335,450
363,456;  302,553;  286,600;  316,450
363,534;  325,173;  318,600;  323,450
363,612;  324,793;  320,600;  312,450
363,690;  333,043;  319,600;  344,450
363,769;  352,553;  340,600;  345,450
363,847;  330,124;  308,600;  356,450
363,925;  301,203;  282,600;  303,450
364,003;  351,094;  343,600;  348,450
364,081;  339,094;  323,600;  338,450
364,159;  333,224;  325,600;  330,450
364,237;  344,164;  351,600;  326,450
364,315;  322,303;  306,600;  311,450
364,393;  356,474;  363,600;  340,450
364,471;  338,884;  345,600;  315,450
364,549;  349,353;  344,600;  337,450
364,627;  349,353;  339,600;  321,450
364,705;  356,733;  344,600;  299,450
364,783;  426,483;  417,600;  294,450
364,861; 1004,044; 1050,600;  311,450
364,939; 3602,864; 3619,600;  304,450
365,017;  782,594;  723,600;  298,450
365,095;  365,013;  341,600;  327,450
365,173;  374,053;  398,600;  335,450
365,251;  376,934;  356,600;  345,450
365,329;  527,404;  527,600;  344,450
365,407; 1180,413; 1155,600;  315,450
365,485;  463,303;  464,600;  377,450
365,563;  357,833;  354,600;  339,450
365,641;  334,904;  327,600;  316,450
365,719;  339,483;  361,600;  314,450
365,796;  341,113;  329,600;  309,450
365,874;  351,863;  329,600;  354,450
365,952;  317,414;  334,600;  297,450
366,030;  342,194;  311,600;  318,450
366,108;  360,333;  336,600;  325,450
366,185;  627,484;  644,600;  330,450
366,263;  889,833;  880,600;  333,450
366,341;  373,983;  362,600;  310,450
366,419;  334,073;  335,600;  319,450
366,496;  345,934;  347,600;  336,450
366,574;  327,694;  299,600;  321,450
366,652;  347,353;  381,600;  324,450
366,730;  364,513;  336,600;  375,450
366,807;  330,773;  317,600;  335,450
366,885;  321,173;  315,600;  340,450
366,963;  329,844;  305,600;  332,450
367,040;  348,214;  348,600;  348,450
367,118;  323,224;  315,600;  299,450
367,196;  340,293;  322,600;  355,450
367,273;  330,013;  331,600;  352,450
367,351;  325,654;  314,600;  320,450
367,428;  356,004;  351,600;  360,450
367,506;  326,023;  361,600;  305,450
367,584;  358,444;  352,600;  377,450
367,661;  338,273;  329,600;  332,450
367,739;  327,064;  328,600;  328,450
367,816;  320,654;  343,600;  292,450
367,894;  339,814;  368,600;  312,450
367,971;  330,203;  309,600;  328,450
368,049;  350,254;  376,600;  316,450
368,126;  314,293;  329,600;  318,450
368,204;  348,583;  333,600;  342,450
368,281;  352,453;  375,600;  360,450
368,359;  346,923;  352,600;  332,450
368,436;  341,823;  349,600;  336,450
368,514;  347,124;  344,600;  337,450
368,591;  341,384;  344,600;  347,450
368,668;  343,214;  375,600;  336,450
368,746;  355,184;  387,600;  352,450
368,823;  338,493;  338,600;  380,450
368,901;  336,493;  325,600;  328,450
368,978;  354,363;  329,600;  311,450
369,055;  340,833;  339,600;  332,450
369,133;  362,714;  371,600;  352,450
369,210;  333,254;  328,600;  366,450
369,287;  364,134;  364,600;  366,450
369,365;  367,553;  380,600;  367,450
369,442;  343,844;  347,600;  350,450
369,519;  304,134;  321,600;  298,450
369,596;  369,583;  359,600;  339,450
369,674;  331,904;  327,600;  283,450
369,751;  365,603;  337,600;  371,450
369,828;  347,143;  351,600;  337,450
369,905;  351,323;  358,600;  377,450
369,983;  326,464;  305,600;  327,450
370,060;  331,073;  323,600;  301,450
370,137;  368,763;  394,600;  401,450
370,214;  336,393;  321,600;  374,450
370,291;  345,043;  350,600;  340,450
370,368;  346,613;  356,600;  383,450
370,446;  334,504;  301,600;  350,450
370,523;  329,934;  360,600;  316,450
370,600;  352,384;  368,600;  319,450
370,677;  342,964;  348,600;  332,450
370,754;  338,964;  343,600;  331,450
370,831;  334,844;  352,600;  343,450
370,908;  367,654;  347,600;  374,450
370,985;  321,184;  333,600;  281,450
371,062;  342,964;  341,600;  344,450
371,139;  358,654;  361,600;  363,450
371,216;  355,483;  351,600;  347,450
371,293;  351,733;  329,600;  359,450
371,370;  326,224;  322,600;  314,450
371,447;  350,353;  346,600;  342,450
371,524;  370,224;  346,600;  357,450
371,601;  366,124;  371,600;  341,450
371,678;  372,384;  350,600;  355,450
371,755;  342,874;  366,600;  335,450
371,832;  367,844;  370,600;  375,450
371,909;  341,173;  370,600;  318,450
371,986;  375,154;  371,600;  394,450
372,063;  343,694;  324,600;  329,450
372,140;  353,833;  342,600;  359,450
372,216;  354,613;  356,600;  331,450
372,293;  341,393;  310,600;  347,450
372,370;  368,384;  375,600;  357,450
372,447;  356,254;  329,600;  372,450
372,524;  344,124;  350,600;  371,450
372,601;  348,833;  369,600;  321,450
372,677;  332,763;  344,600;  333,450
372,754;  344,523;  355,600;  360,450
372,831;  349,384;  356,600;  354,450
372,908;  363,724;  380,600;  385,450
372,984;  349,814;  362,600;  356,450
373,061;  335,073;  317,600;  334,450
373,138;  347,414;  367,600;  366,450
373,215;  340,654;  329,600;  317,450
373,291;  347,923;  347,600;  356,450
373,368;  347,814;  378,600;  362,450
373,445;  345,434;  374,600;  345,450
373,521;  344,103;  355,600;  341,450
373,598;  340,934;  354,600;  314,450
373,675;  326,543;  335,600;  358,450
373,751;  344,034;  336,600;  357,450
373,828;  338,923;  338,600;  346,450
373,904;  385,444;  409,600;  394,450
373,981;  327,444;  340,600;  337,450
374,057;  349,154;  343,600;  341,450
374,134;  324,624;  339,600;  316,450
374,211;  344,594;  330,600;  339,450
374,287;  331,833;  336,600;  339,450
374,364;  358,673;  379,600;  370,450
374,440;  316,964;  279,600;  284,450
374,517;  362,134;  367,600;  360,450
374,593;  322,543;  326,600;  299,450
374,670;  337,134;  335,600;  311,450
374,746;  341,314;  347,600;  339,450
374,823;  367,453;  389,600;  364,450
374,899;  359,703;  353,600;  394,450
374,975;  333,293;  336,600;  333,450
375,052;  318,404;  327,600;  327,450
375,128;  321,043;  281,600;  339,450
375,205;  349,904;  346,600;  378,450
375,281;  330,803;  294,600;  331,450
375,357;  360,754;  371,600;  352,450
375,434;  330,694;  313,600;  355,450
375,510;  348,314;  354,600;  323,450
375,586;  343,284;  356,600;  351,450
375,663;  319,013;  314,600;  307,450
375,739;  352,254;  355,600;  380,450
375,815;  342,483;  340,600;  317,450
375,892;  343,634;  340,600;  341,450
375,968;  331,944;  313,600;  325,450
376,044;  335,434;  370,600;  333,450
376,120;  329,194;  311,600;  364,450
376,197;  348,164;  361,600;  328,450
376,273;  336,594;  347,600;  334,450
376,349;  376,194;  386,600;  368,450
376,425;  358,823;  378,600;  336,450
376,501;  345,034;  329,600;  348,450
376,578;  356,453;  332,600;  426,450
376,654;  378,083;  393,600;  365,450
376,730;  358,914;  340,600;  352,450
376,806;  368,784;  346,600;  382,450
376,882;  370,893;  376,600;  332,450
376,958;  373,203;  367,600;  347,450
377,034;  316,173;  320,600;  296,450
377,111;  362,934;  393,600;  358,450
377,187;  385,034;  410,600;  383,450
377,263;  378,393;  397,600;  372,450
377,339;  342,023;  341,600;  319,450
377,415;  355,923;  339,600;  356,450
377,491;  342,124;  362,600;  325,450
377,567;  354,684;  340,600;  369,450
377,643;  375,534;  376,600;  362,450
377,719;  362,034;  368,600;  351,450
377,795;  343,923;  313,600;  350,450
377,871;  362,483;  366,600;  386,450
377,947;  348,743;  343,600;  352,450
378,023;  342,964;  355,600;  339,450
378,099;  346,004;  325,600;  367,450
378,174;  365,483;  364,600;  365,450
378,250;  360,664;  372,600;  389,450
378,326;  365,523;  369,600;  382,450
378,402;  355,344;  359,600;  343,450
378,478;  358,914;  340,600;  355,450
378,554;  367,893;  347,600;  374,450
378,630;  358,754;  369,600;  336,450
378,706;  356,374;  364,600;  321,450
378,781;  392,684;  387,600;  385,450
378,857;  361,173;  359,600;  347,450
378,933;  361,724;  359,600;  335,450
379,009;  345,094;  346,600;  342,450
379,085;  388,993;  419,600;  384,450
379,160;  374,233;  381,600;  366,450
379,236;  371,863;  359,600;  361,450
379,312;  361,714;  337,600;  365,450
379,387;  350,953;  372,600;  349,450
379,463;  359,064;  355,600;  344,450
379,539;  367,134;  408,600;  387,450
379,615;  352,273;  337,600;  364,450
379,690;  392,143;  420,600;  410,450
379,766;  372,043;  389,600;  370,450
379,842;  387,363;  385,600;  366,450
379,917;  382,363;  389,600;  369,450
379,993;  367,224;  370,600;  358,450
380,068;  355,844;  341,600;  349,450
380,144;  380,094;  398,600;  393,450
380,220;  381,493;  388,600;  391,450
380,295;  353,113;  356,600;  356,450
380,371;  355,303;  358,600;  361,450
380,446;  374,214;  418,600;  376,450
380,522;  342,763;  340,600;  360,450
380,597;  357,694;  377,600;  349,450
380,673;  390,393;  395,600;  384,450
380,748;  350,523;  338,600;  344,450
380,824;  364,214;  364,600;  362,450
380,899;  383,273;  371,600;  364,450
380,975;  361,023;  388,600;  402,450
381,050;  349,404;  363,600;  336,450
381,126;  368,624;  370,600;  362,450
381,201;  397,904;  407,600;  405,450
381,277;  369,643;  367,600;  390,450
381,352;  385,203;  389,600;  377,450
381,427;  369,073;  359,600;  370,450
381,503;  376,353;  394,600;  377,450
381,578;  359,224;  363,600;  360,450
381,653;  366,684;  381,600;  387,450
381,729;  355,184;  346,600;  360,450
381,804;  365,553;  373,600;  375,450
381,879;  378,414;  380,600;  366,450
381,955;  355,434;  343,600;  346,450
382,030;  350,434;  346,600;  339,450
382,105;  372,124;  372,600;  372,450
382,181;  371,393;  382,600;  367,450
382,256;  373,333;  373,600;  383,450
382,331;  367,603;  371,600;  375,450
382,406;  350,004;  368,600;  343,450
382,482;  358,664;  371,600;  380,450
382,557;  356,303;  362,600;  335,450
382,632;  368,184;  364,600;  365,450
382,707;  363,273;  393,600;  349,450
382,782;  364,613;  395,600;  385,450
382,857;  356,404;  373,600;  356,450
382,933;  348,203;  354,600;  349,450
383,008;  340,964;  325,600;  336,450
383,083;  373,333;  382,600;  360,450
383,158;  373,353;  375,600;  368,450
383,233;  358,083;  368,600;  362,450
383,308;  357,013;  360,600;  326,450
383,383;  384,393;  394,600;  390,450
383,458;  357,173;  344,600;  340,450
383,533;  338,393;  331,600;  334,450
383,608;  390,134;  367,600;  381,450
383,683;  383,263;  381,600;  367,450
383,758;  378,453;  398,600;  353,450
383,833;  367,203;  343,600;  350,450
383,908;  336,784;  321,600;  367,450
383,983;  341,423;  365,600;  328,450
384,058;  354,094;  340,600;  383,450
384,133;  364,993;  372,600;  376,450
384,208;  376,103;  395,600;  375,450
384,283;  346,444;  362,600;  321,450
384,358;  383,073;  392,600;  390,450
384,433;  356,214;  347,600;  341,450
384,508;  365,404;  339,600;  338,450
384,583;  370,833;  337,600;  355,450
384,658;  369,154;  352,600;  366,450
384,732;  334,613;  329,600;  319,450
384,807;  358,654;  347,600;  366,450
384,882;  369,243;  391,600;  349,450
384,957;  370,624;  348,600;  345,450
385,032;  369,444;  383,600;  373,450
385,106;  369,173;  342,600;  369,450
385,181;  349,624;  353,600;  359,450
385,256;  357,964;  367,600;  336,450
385,331;  370,833;  375,600;  364,450
385,405;  376,363;  383,600;  400,450
385,480;  360,634;  362,600;  372,450
385,555;  397,184;  402,600;  399,450
385,630;  386,553;  369,600;  370,450
385,704;  371,694;  353,600;  390,450
385,779;  363,613;  363,600;  368,450
385,854;  364,844;  364,600;  380,450
385,928;  360,754;  348,600;  365,450
386,003;  397,483;  390,600;  397,450
386,078;  369,654;  374,600;  369,450
386,152;  398,844;  391,600;  412,450
386,227;  356,203;  347,600;  354,450
386,301;  375,684;  389,600;  348,450
386,376;  347,673;  352,600;  346,450
386,450;  378,243;  356,600;  374,450
386,525;  372,134;  357,600;  376,450
386,600;  383,513;  367,600;  381,450
386,674;  359,134;  374,600;  364,450
386,749;  375,073;  395,600;  359,450
386,823;  374,184;  363,600;  377,450
386,898;  379,983;  386,600;  374,450
386,972;  379,923;  383,600;  354,450
387,047;  369,904;  368,600;  364,450
387,121;  377,934;  375,600;  363,450
387,195;  350,833;  359,600;  352,450
387,270;  381,673;  384,600;  385,450
387,344;  401,344;  429,600;  393,450
387,419;  387,974;  367,600;  412,450
387,493;  374,333;  371,600;  377,450
387,567;  354,483;  351,600;  336,450
387,642;  401,414;  383,600;  402,450
387,716;  367,833;  368,600;  378,450
387,790;  364,934;  337,600;  366,450
387,865;  370,964;  351,600;  364,450
387,939;  400,493;  405,600;  406,450
388,013;  383,434;  377,600;  417,450
388,088;  365,543;  361,600;  363,450
388,162;  368,094;  366,600;  355,450
388,236;  370,323;  381,600;  416,450
388,310;  358,773;  368,600;  361,450
388,385;  393,203;  324,600;  400,450
388,459;  375,793;  362,600;  379,450
388,533;  357,634;  378,600;  365,450
388,607;  358,634;  374,600;  378,450
388,682;  371,184;  369,600;  394,450
388,756;  356,073;  375,600;  378,450
388,830;  387,714;  378,600;  413,450
388,904;  378,333;  382,600;  382,450
388,978;  369,714;  368,600;  361,450
389,052;  371,023;  390,600;  343,450
389,126;  367,344;  353,600;  387,450
389,200;  373,344;  376,600;  362,450
389,275;  368,064;  382,600;  389,450
389,349;  369,243;  405,600;  380,450
389,423;  363,754;  380,600;  369,450
389,497;  376,953;  426,600;  377,450
389,571;  362,643;  391,600;  375,450
389,645;  374,184;  378,600;  388,450
389,719;  365,603;  384,600;  388,450
389,793;  343,124;  341,600;  322,450
389,867;  401,333;  410,600;  386,450
389,941;  373,434;  367,600;  369,450
390,015;  361,214;  348,600;  372,450
390,089;  358,773;  369,600;  344,450
390,163;  370,103;  368,600;  375,450
390,237;  372,974;  356,600;  361,450
390,310;  377,634;  393,600;  366,450
390,384;  380,023;  383,600;  344,450
390,458;  399,703;  414,600;  432,450
390,532;  384,134;  401,600;  395,450
390,606;  366,983;  361,600;  328,450
390,680;  365,733;  354,600;  373,450
390,754;  364,874;  373,600;  342,450
390,827;  388,934;  382,600;  388,450
390,901;  391,743;  362,600;  377,450
390,975;  366,944;  366,600;  368,450
391,049;  362,754;  374,600;  392,450
391,123;  357,814;  342,600;  367,450
391,196;  359,224;  344,600;  368,450
391,270;  371,393;  372,600;  366,450
391,344;  356,034;  384,600;  374,450
391,418;  367,464;  368,600;  366,450
391,491;  358,573;  362,600;  365,450
391,565;  359,974;  341,600;  346,450
391,639;  392,293;  379,600;  381,450
391,712;  382,344;  373,600;  385,450
391,786;  379,974;  401,600;  429,450
391,860;  366,303;  354,600;  354,450
391,933;  370,643;  366,600;  333,450
392,007;  371,603;  393,600;  364,450
392,081;  397,254;  404,600;  366,450
392,154;  379,263;  366,600;  394,450
392,228;  386,083;  392,600;  387,450
392,301;  371,333;  366,600;  402,450
392,375;  389,543;  394,600;  406,450
392,448;  376,553;  397,600;  375,450
392,522;  367,634;  382,600;  383,450
392,595;  370,393;  389,600;  365,450
392,669;  372,224;  386,600;  367,450
392,742;  390,934;  378,600;  401,450
392,816;  390,263;  376,600;  383,450
392,889;  392,423;  392,600;  401,450
392,963;  403,684;  400,600;  382,450
393,036;  382,064;  366,600;  401,450
393,110;  392,603;  388,600;  376,450
393,183;  403,863;  407,600;  399,450
393,257;  417,414;  437,600;  408,450
393,330;  366,634;  373,600;  391,450
393,403;  390,823;  410,600;  372,450
393,477;  356,233;  347,600;  364,450
393,550;  386,303;  413,600;  387,450
393,623;  382,134;  374,600;  402,450
393,697;  401,634;  404,600;  411,450
393,770;  377,844;  386,600;  364,450
393,843;  401,844;  419,600;  412,450
393,917;  394,564;  400,600;  407,450
393,990;  409,143;  378,600;  395,450
394,063;  388,254;  403,600;  375,450
394,136;  388,184;  390,600;  390,450
394,210;  389,273;  393,600;  380,450
394,283;  402,034;  385,600;  395,450
394,356;  393,404;  410,600;  373,450
394,429;  393,553;  399,600;  357,450
394,502;  381,944;  404,600;  373,450
394,576;  409,374;  416,600;  404,450
394,649;  375,404;  376,600;  381,450
394,722;  402,124;  390,600;  390,450
394,795;  408,184;  413,600;  406,450
394,868;  382,953;  369,600;  390,450
394,941;  373,013;  371,600;  368,450
395,014;  414,323;  419,600;  416,450
395,088;  397,724;  404,600;  391,450
395,161;  394,233;  402,600;  399,450
395,234;  405,793;  390,600;  397,450
395,307;  401,023;  413,600;  388,450
395,380;  383,404;  393,600;  392,450
395,453;  433,654;  439,600;  425,450
395,526;  409,874;  430,600;  407,450
395,599;  424,664;  422,600;  432,450
395,672;  393,094;  378,600;  408,450
395,745;  416,724;  400,600;  390,450
395,818;  376,293;  385,600;  376,450
395,891;  385,523;  408,600;  379,450
395,964;  413,823;  398,600;  436,450
396,036;  381,444;  400,600;  390,450
396,109;  391,594;  399,600;  381,450
396,182;  393,814;  392,600;  382,450
396,255;  395,254;  417,600;  383,450
396,328;  408,004;  412,600;  432,450
396,401;  365,993;  363,600;  381,450
396,474;  379,773;  399,600;  360,450
396,547;  399,393;  411,600;  417,450
396,619;  388,384;  384,600;  393,450
396,692;  407,534;  371,600;  354,450
396,765;  368,664;  375,600;  376,450
396,838;  386,414;  367,600;  390,450
396,911;  365,664;  363,600;  352,450
396,983;  390,013;  385,600;  396,450
397,056;  368,143;  375,600;  367,450
397,129;  385,953;  369,600;  368,450
397,201;  385,803;  413,600;  395,450
397,274;  384,384;  379,600;  382,450
397,347;  356,214;  364,600;  378,450
397,420;  380,393;  373,600;  379,450
397,492;  384,914;  404,600;  380,450
397,565;  372,664;  372,600;  365,450
397,637;  364,893;  371,600;  361,450
397,710;  345,393;  349,600;  341,450
397,783;  409,273;  444,600;  401,450
397,855;  340,134;  363,600;  346,450
397,928;  368,654;  381,600;  330,450
398,000;  392,303;  369,600;  384,450
398,073;  384,043;  376,600;  372,450
398,146;  373,893;  365,600;  358,450
398,218;  390,013;  417,600;  363,450
398,291;  382,863;  398,600;  385,450
398,363;  376,553;  370,600;  358,450
398,436;  367,513;  369,600;  360,450
398,508;  379,034;  378,600;  369,450
398,581;  374,273;  368,600;  367,450
398,653;  367,594;  318,600;  382,450
398,726;  374,974;  376,600;  371,450
398,798;  381,553;  390,600;  376,450
398,870;  387,664;  374,600;  374,450
398,943;  363,083;  371,600;  357,450
399,015;  361,094;  362,600;  383,450
399,088;  381,654;  377,600;  373,450
399,160;  361,573;  370,600;  348,450
399,232;  348,884;  332,600;  349,450
399,305;  368,363;  379,600;  362,450
399,377;  374,634;  350,600;  343,450
399,449;  380,543;  398,600;  388,450
399,522;  418,023;  442,600;  416,450
399,594;  359,853;  359,600;  346,450
399,666;  379,673;  393,600;  361,450
399,738;  368,724;  378,600;  375,450
399,811;  370,793;  370,600;  388,450
399,883;  385,164;  392,600;  378,450
399,955;  385,863;  429,600;  331,450
400,027;  345,164;  342,600;  364,450
400,100;  401,374;  402,600;  427,450
400,172;  345,384;  360,600;  354,450
400,244;  372,763;  369,600;  361,450
400,316;  389,743;  396,600;  381,450
400,388;  384,303;  408,600;  368,450
400,460;  357,694;  350,600;  359,450
400,532;  344,934;  329,600;  337,450
400,605;  378,184;  378,600;  368,450
400,677;  399,654;  389,600;  380,450
400,749;  390,293;  403,600;  406,450
400,821;  383,493;  384,600;  385,450
400,893;  368,273;  364,600;  384,450
400,965;  386,064;  390,600;  380,450
401,037;  382,263;  376,600;  402,450
401,109;  367,844;  363,600;  365,450
401,181;  376,904;  383,600;  398,450

