pru
Integration time [ms]:   0,150
Averaging Nr. [scans]: 100
Smoothing Nr. [pixels]: 0
Data measured with spectrometer [name]: 7416147SP
Wave   ;Sample   ;Dark     ;Reference
[nm]   ;[counts] ;[counts] ;[counts] 

230,218;  295,560;  290,315;  293,845
230,311;  319,859;  319,885;  318,565
230,404;  312,699;  309,855;  312,875
230,497;  320,000;  317,385;  315,715
230,591;  338,340;  333,426;  335,355
230,684;  333,060;  326,486;  329,355
230,777;  318,109;  311,736;  314,765
230,870;  318,349;  313,326;  316,955
230,964;  313,530;  310,885;  314,745
231,057;  340,620;  342,496;  343,475
231,150;  332,859;  331,695;  332,715
231,243;  332,419;  330,635;  332,775
231,336;  335,259;  331,375;  331,335
231,430;  319,319;  316,496;  317,715
231,523;  328,829;  324,516;  326,785
231,616;  310,030;  305,445;  309,685
231,709;  343,229;  328,065;  330,025
231,802;  317,120;  300,945;  301,885
231,895;  317,169;  299,836;  300,315
231,988;  329,699;  315,655;  318,535
232,082;  313,259;  298,155;  302,425
232,175;  318,879;  302,155;  306,175
232,268;  318,520;  301,266;  305,345
232,361;  320,470;  304,806;  307,515
232,454;  340,009;  322,396;  323,025
232,547;  334,669;  318,716;  322,655
232,640;  310,530;  296,766;  294,035
232,733;  331,970;  314,116;  323,045
232,826;  310,139;  288,915;  295,035
232,919;  330,579;  313,826;  312,665
233,012;  307,780;  293,646;  292,775
233,105;  316,060;  294,766;  298,815
233,199;  318,199;  299,875;  304,045
233,292;  308,259;  293,475;  296,235
233,385;  276,090;  263,426;  262,225
233,478;  310,690;  293,885;  295,685
233,571;  341,579;  324,586;  327,675
233,664;  321,220;  305,996;  308,435
233,757;  300,400;  280,796;  281,395
233,850;  295,520;  282,255;  285,825
233,943;  308,750;  290,896;  292,195
234,035;  316,960;  300,576;  302,355
234,128;  297,109;  281,836;  283,945
234,221;  315,299;  297,665;  298,245
234,314;  329,909;  304,915;  311,975
234,407;  326,900;  302,935;  309,075
234,500;  298,639;  277,625;  281,875
234,593;  302,960;  287,095;  285,735
234,686;  311,669;  293,746;  293,765
234,779;  307,690;  291,266;  293,165
234,872;  299,120;  281,806;  281,565
234,965;  305,400;  292,806;  290,795
235,058;  293,859;  274,155;  276,215
235,150;  304,530;  285,776;  290,805
235,243;  301,729;  282,736;  284,425
235,336;  318,949;  300,695;  304,545
235,429;  287,740;  273,646;  272,515
235,522;  346,620;  330,996;  335,445
235,615;  277,949;  262,276;  265,145
235,707;  296,699;  282,415;  282,335
235,800;  303,599;  289,815;  290,515
235,893;  307,150;  289,956;  292,955
235,986;  315,900;  298,266;  299,325
236,079;  302,970;  286,586;  291,125
236,171;  287,440;  270,725;  271,865
236,264;  330,000;  312,635;  313,275
236,357;  307,199;  290,986;  293,865
236,450;  327,799;  315,225;  317,215
236,542;  289,710;  267,065;  272,575
236,635;  330,740;  313,546;  316,385
236,728;  300,060;  285,516;  288,115
236,821;  300,479;  280,165;  283,715
236,913;  292,530;  277,896;  276,315
237,006;  287,639;  271,605;  275,435
237,099;  299,579;  283,896;  285,575
237,191;  316,020;  298,796;  300,225
237,284;  286,259;  267,896;  272,995
237,377;  313,199;  294,725;  297,495
237,470;  303,060;  285,415;  287,875
237,562;  295,960;  276,866;  275,785
237,655;  336,949;  320,945;  324,565
237,747;  309,449;  292,695;  295,845
237,840;  330,669;  313,086;  314,435
237,933;  317,430;  300,445;  301,555
238,025;  319,990;  301,415;  301,595
238,118;  303,900;  282,456;  287,755
238,211;  287,379;  268,155;  272,375
238,303;  289,370;  272,296;  273,415
238,396;  287,020;  268,065;  271,945
238,488;  306,770;  292,625;  291,075
238,581;  304,900;  287,855;  289,445
238,673;  302,190;  285,766;  286,865
238,766;  302,750;  282,635;  283,185
238,859;  293,340;  273,586;  276,105
238,951;  297,699;  281,095;  282,835
239,044;  295,069;  276,496;  279,525
239,136;  289,169;  269,035;  271,705
239,229;  297,000;  280,665;  283,435
239,321;  292,509;  271,255;  276,105
239,414;  312,470;  289,875;  292,345
239,506;  300,729;  284,625;  290,655
239,599;  333,530;  316,315;  315,935
239,691;  307,280;  287,945;  287,755
239,784;  322,639;  301,926;  304,175
239,876;  310,280;  295,005;  294,715
239,969;  305,810;  284,426;  288,635
240,061;  290,210;  269,505;  272,655
240,153;  296,759;  276,776;  278,405
240,246;  306,900;  287,635;  287,925
240,338;  328,590;  315,285;  314,405
240,431;  286,849;  268,896;  270,455
240,523;  285,000;  269,315;  270,665
240,615;  317,520;  299,086;  301,495
240,708;  328,419;  309,945;  312,145
240,800;  307,729;  286,956;  289,175
240,893;  289,849;  272,216;  274,965
240,985;  307,780;  286,116;  289,995
241,077;  286,409;  269,866;  271,905
241,170;  318,400;  300,355;  300,805
241,262;  308,849;  293,695;  290,825
241,354;  271,750;  252,305;  253,985
241,447;  298,669;  281,326;  283,905
241,539;  288,000;  266,746;  270,745
241,631;  336,210;  314,366;  317,275
241,724;  280,799;  259,135;  260,655
241,816;  298,419;  279,385;  281,545
241,908;  298,340;  275,056;  280,445
242,000;  292,259;  277,625;  279,505
242,093;  297,780;  277,725;  280,745
242,185;  296,530;  277,736;  277,535
242,277;  291,680;  274,695;  277,115
242,369;  304,190;  282,146;  286,335
242,462;  294,340;  274,405;  274,215
242,554;  296,909;  277,146;  281,105
242,646;  302,379;  283,146;  286,575
242,738;  325,359;  303,255;  307,195
242,830;  283,359;  259,026;  260,415
242,923;  315,039;  297,035;  299,015
243,015;  286,549;  268,655;  266,675
243,107;  287,329;  267,676;  271,255
243,199;  295,799;  276,345;  278,365
243,291;  290,099;  272,125;  276,215
243,383;  271,490;  254,826;  256,465
243,476;  282,319;  269,435;  268,005
243,568;  298,500;  280,915;  284,885
243,660;  293,590;  273,385;  279,575
243,752;  301,780;  279,796;  287,275
243,844;  319,169;  300,766;  302,705
243,936;  309,419;  291,956;  293,555
244,028;  320,329;  304,796;  307,475
244,120;  267,190;  254,346;  255,525
244,212;  311,299;  293,826;  293,755
244,305;  281,530;  268,496;  267,935
244,397;  304,280;  289,165;  291,675
244,489;  319,900;  304,276;  307,925
244,581;  314,259;  299,255;  300,795
244,673;  299,060;  281,806;  283,225
244,765;  302,930;  286,035;  290,565
244,857;  302,099;  284,986;  287,335
244,949;  303,169;  283,956;  284,945
245,041;  268,379;  250,865;  255,005
245,133;  312,359;  293,695;  296,625
245,225;  294,909;  277,915;  280,695
245,317;  301,639;  289,456;  289,025
245,409;  284,069;  263,755;  269,375
245,501;  304,329;  288,496;  293,045
245,593;  305,370;  286,255;  290,055
245,685;  300,829;  285,405;  288,735
245,776;  301,430;  285,945;  287,235
245,868;  285,759;  271,276;  272,565
245,960;  279,220;  265,875;  263,405
246,052;  321,879;  310,766;  310,445
246,144;  307,490;  294,165;  294,205
246,236;  297,590;  283,576;  283,565
246,328;  301,609;  291,345;  293,965
246,420;  297,859;  279,746;  280,855
246,512;  322,889;  308,236;  310,455
246,604;  300,139;  282,526;  286,825
246,695;  285,190;  273,345;  272,135
246,787;  314,199;  293,526;  301,145
246,879;  309,629;  292,716;  297,145
246,971;  310,759;  299,276;  300,965
247,063;  289,440;  273,255;  278,605
247,155;  312,190;  294,516;  297,195
247,246;  297,990;  283,266;  283,715
247,338;  307,710;  288,116;  294,265
247,430;  317,319;  299,945;  303,475
247,522;  319,069;  297,546;  300,555
247,613;  315,379;  296,586;  299,675
247,705;  305,970;  286,896;  288,445
247,797;  330,490;  305,776;  307,475
247,889;  324,539;  294,706;  295,475
247,980;  323,079;  285,676;  291,995
248,072;  332,419;  282,845;  285,895
248,164;  352,940;  293,216;  298,385
248,256;  306,379;  271,366;  274,105
248,347;  331,340;  309,785;  311,065
248,439;  299,299;  283,165;  282,675
248,531;  320,150;  303,885;  304,835
248,622;  323,940;  307,206;  308,325
248,714;  296,720;  276,945;  278,365
248,806;  312,440;  293,655;  298,015
248,897;  308,960;  291,535;  292,985
248,989;  281,280;  263,956;  263,855
249,081;  302,150;  283,355;  284,905
249,172;  309,990;  289,926;  295,135
249,264;  287,699;  272,076;  273,435
249,356;  289,240;  269,326;  273,745
249,447;  303,699;  282,176;  284,525
249,539;  296,970;  283,086;  284,645
249,630;  309,020;  289,875;  288,495
249,722;  331,840;  313,276;  315,395
249,813;  303,370;  280,496;  284,125
249,905;  308,389;  289,426;  293,665
249,997;  301,639;  281,445;  280,615
250,088;  305,819;  282,255;  288,985
250,180;  305,930;  283,695;  284,575
250,271;  302,710;  281,195;  280,335
250,363;  339,150;  319,105;  320,755
250,454;  296,909;  273,035;  275,615
250,546;  309,720;  285,926;  289,415
250,637;  285,949;  264,445;  261,845
250,729;  293,090;  266,505;  269,555
250,820;  317,020;  289,915;  292,965
250,912;  290,490;  262,355;  267,085
251,003;  306,030;  278,396;  280,475
251,095;  306,479;  282,086;  284,555
251,186;  296,299;  271,415;  274,775
251,277;  302,210;  271,986;  275,265
251,369;  305,639;  275,975;  275,105
251,460;  303,440;  271,456;  273,815
251,552;  310,979;  278,475;  279,655
251,643;  304,970;  268,796;  267,375
251,735;  309,650;  265,246;  267,375
251,826;  300,349;  258,016;  263,245
251,917;  330,819;  278,035;  279,115
252,009;  327,389;  273,396;  275,605
252,100;  334,840;  281,426;  283,345
252,191;  354,849;  289,996;  292,015
252,283;  346,199;  265,095;  267,705
252,374;  371,319;  278,296;  278,375
252,465;  399,530;  295,405;  298,605
252,557;  394,579;  283,576;  286,365
252,648;  394,970;  265,146;  268,635
252,739;  420,909;  280,516;  282,125
252,831;  424,810;  270,836;  280,355
252,922;  459,849;  282,296;  280,045
253,013;  510,409;  273,956;  284,285
253,104;  570,049;  270,076;  270,335
253,196;  679,060;  271,366;  271,175
253,287;  839,390;  281,836;  277,135
253,378; 1216,890;  276,276;  277,975
253,469; 3752,169;  272,385;  276,445
253,561;21333,039;  273,496;  278,855
253,652;42480,801;  282,266;  280,015
253,743; 6333,299;  276,216;  280,985
253,834;  621,799;  259,146;  265,875
253,926;  500,859;  262,605;  267,485
254,017;  482,669;  284,236;  290,235
254,108;  456,039;  291,836;  290,565
254,199;  429,940;  285,326;  291,185
254,290;  434,180;  312,725;  313,865
254,381;  415,930;  287,076;  291,155
254,472;  417,710;  291,935;  300,495
254,564;  416,109;  312,766;  307,565
254,655;  391,840;  304,755;  308,105
254,746;  349,229;  264,896;  264,025
254,837;  381,259;  293,105;  298,435
254,928;  360,770;  266,836;  271,975
255,019;  367,650;  283,505;  286,805
255,110;  371,930;  300,165;  301,665
255,201;  355,500;  281,155;  287,655
255,292;  382,270;  312,706;  316,275
255,383;  354,829;  275,785;  275,725
255,474;  340,319;  273,306;  273,095
255,566;  354,379;  283,926;  286,645
255,657;  347,379;  298,556;  302,445
255,748;  316,379;  271,415;  278,125
255,839;  323,509;  280,695;  282,485
255,930;  327,629;  287,866;  289,735
256,021;  337,079;  298,845;  298,115
256,112;  317,210;  278,456;  278,735
256,203;  346,049;  311,866;  313,365
256,294;  330,520;  293,496;  299,575
256,384;  309,220;  270,565;  275,715
256,475;  320,900;  290,996;  294,595
256,566;  311,919;  281,246;  287,825
256,657;  302,319;  278,945;  278,915
256,748;  304,069;  281,285;  284,675
256,839;  295,299;  274,426;  273,555
256,930;  303,539;  279,165;  283,055
257,021;  324,949;  304,155;  306,465
257,112;  328,979;  304,926;  309,235
257,203;  276,979;  258,445;  259,825
257,294;  273,169;  254,465;  262,175
257,385;  310,509;  288,526;  294,205
257,475;  299,849;  279,135;  278,545
257,566;  309,479;  287,586;  292,255
257,657;  292,460;  269,595;  270,025
257,748;  293,030;  275,935;  276,095
257,839;  301,240;  287,915;  286,025
257,930;  308,240;  285,736;  290,395
258,020;  286,590;  269,716;  271,535
258,111;  278,389;  262,225;  263,255
258,202;  304,990;  288,326;  289,935
258,293;  295,690;  284,655;  285,305
258,384;  319,819;  305,595;  307,665
258,474;  299,659;  288,676;  291,995
258,565;  283,470;  271,635;  273,435
258,656;  305,289;  292,966;  295,145
258,747;  285,479;  271,475;  275,425
258,837;  283,629;  274,246;  273,695
258,928;  292,609;  275,785;  278,605
259,019;  284,650;  268,415;  270,595
259,109;  283,030;  269,685;  269,425
259,200;  303,169;  286,105;  289,815
259,291;  284,870;  269,975;  271,655
259,381;  306,220;  293,026;  295,635
259,472;  307,680;  295,796;  296,545
259,563;  316,120;  303,065;  305,845
259,653;  288,240;  278,296;  281,385
259,744;  280,069;  268,826;  267,735
259,835;  314,030;  300,975;  302,815
259,925;  288,229;  271,505;  277,075
260,016;  299,069;  286,746;  287,585
260,107;  271,400;  258,035;  264,715
260,197;  294,319;  283,975;  286,325
260,288;  288,690;  274,565;  279,155
260,378;  279,319;  267,195;  271,275
260,469;  299,599;  285,915;  288,765
260,560;  280,409;  266,146;  269,495
260,650;  280,940;  271,736;  275,665
260,741;  288,030;  276,366;  279,035
260,831;  283,349;  272,855;  275,905
260,922;  279,870;  266,206;  269,545
261,012;  286,419;  277,665;  278,255
261,103;  311,289;  301,785;  302,875
261,193;  311,710;  302,086;  303,915
261,284;  279,409;  271,806;  273,005
261,374;  306,139;  296,385;  303,855
261,465;  297,879;  287,755;  289,435
261,555;  288,699;  282,255;  280,715
261,646;  299,289;  292,475;  294,375
261,736;  293,940;  287,435;  290,535
261,827;  293,900;  283,716;  284,935
261,917;  319,340;  311,736;  311,595
262,007;  295,870;  283,986;  288,075
262,098;  298,460;  289,445;  287,725
262,188;  338,699;  326,655;  333,475
262,279;  310,569;  300,185;  299,795
262,369;  297,329;  286,285;  289,225
262,459;  298,310;  288,246;  290,365
262,550;  312,770;  303,266;  301,565
262,640;  283,729;  273,005;  276,555
262,731;  302,000;  300,935;  299,335
262,821;  315,229;  310,535;  312,255
262,911;  307,680;  297,875;  298,285
263,002;  299,240;  289,625;  290,825
263,092;  310,990;  303,956;  306,295
263,182;  293,609;  284,806;  285,755
263,273;  292,720;  285,426;  289,395
263,363;  306,180;  300,746;  299,385
263,453;  276,919;  267,375;  268,605
263,543;  296,900;  289,815;  289,615
263,634;  274,159;  266,516;  266,365
263,724;  299,470;  292,586;  293,065
263,814;  318,409;  308,706;  308,885
263,904;  292,520;  281,966;  285,905
263,995;  329,780;  322,276;  322,325
264,085;  296,229;  295,855;  294,575
264,175;  302,109;  296,706;  296,385
264,265;  329,770;  321,105;  321,865
264,356;  284,020;  270,466;  274,385
264,446;  317,520;  308,996;  307,575
264,536;  300,949;  294,026;  297,515
264,626;  326,509;  318,486;  320,175
264,716;  306,620;  298,435;  303,275
264,806;  321,389;  308,776;  310,415
264,897;  265,840;  258,135;  258,615
264,987;  315,729;  303,535;  304,475
265,077;  313,909;  287,046;  292,545
265,167;  375,740;  310,216;  311,575
265,257;  337,229;  290,445;  290,535
265,347;  333,620;  294,336;  295,795
265,437;  324,340;  296,176;  300,635
265,527;  321,009;  293,155;  294,765
265,617;  290,729;  279,875;  285,145
265,708;  326,680;  314,216;  314,825
265,798;  312,120;  305,415;  307,055
265,888;  310,530;  300,716;  305,545
265,978;  304,520;  294,496;  295,825
266,068;  322,129;  310,155;  315,855
266,158;  300,919;  294,005;  297,205
266,248;  283,259;  274,016;  276,865
266,338;  320,199;  313,035;  314,815
266,428;  305,220;  300,635;  302,655
266,518;  318,289;  311,405;  315,615
266,608;  303,560;  299,725;  294,215
266,698;  276,129;  273,586;  276,245
266,788;  280,490;  274,456;  277,745
266,878;  334,900;  325,776;  330,865
266,968;  313,639;  306,725;  309,425
267,058;  304,549;  297,375;  302,895
267,147;  309,129;  301,845;  302,905
267,237;  300,690;  291,815;  295,765
267,327;  293,440;  286,755;  287,895
267,417;  308,990;  301,225;  303,385
267,507;  300,530;  292,176;  294,215
267,597;  289,579;  282,026;  283,655
267,687;  291,289;  285,165;  287,755
267,777;  290,859;  283,986;  284,615
267,867;  321,210;  312,125;  312,585
267,956;  309,889;  302,466;  304,005
268,046;  315,060;  305,466;  310,865
268,136;  304,240;  296,875;  298,905
268,226;  283,289;  274,885;  274,965
268,316;  288,940;  280,766;  280,845
268,406;  294,590;  289,516;  287,595
268,495;  291,220;  284,415;  287,935
268,585;  316,509;  306,716;  309,605
268,675;  289,120;  284,336;  285,535
268,765;  304,030;  296,355;  300,115
268,854;  291,829;  285,935;  286,715
268,944;  296,479;  291,646;  293,805
269,034;  291,770;  283,986;  289,715
269,124;  293,740;  287,216;  290,705
269,213;  294,479;  286,336;  285,525
269,303;  296,620;  290,466;  288,585
269,393;  306,609;  299,845;  298,345
269,483;  306,169;  300,966;  302,735
269,572;  289,710;  282,875;  284,665
269,662;  284,490;  276,105;  283,315
269,752;  320,500;  312,736;  315,705
269,841;  276,759;  266,046;  269,455
269,931;  289,750;  281,586;  283,075
270,021;  309,210;  300,766;  304,675
270,110;  296,500;  285,695;  288,925
270,200;  303,629;  291,665;  299,445
270,289;  285,549;  280,785;  281,105
270,379;  311,139;  301,466;  302,775
270,469;  296,599;  290,556;  289,955
270,558;  307,479;  303,655;  302,185
270,648;  291,060;  282,785;  284,885
270,737;  300,859;  288,526;  291,525
270,827;  321,150;  310,185;  313,455
270,916;  295,190;  286,935;  289,915
271,006;  301,409;  293,475;  292,885
271,096;  324,799;  317,005;  317,215
271,185;  294,810;  289,896;  289,145
271,275;  309,539;  300,706;  303,575
271,364;  291,560;  281,535;  285,725
271,454;  322,879;  308,255;  315,275
271,543;  303,440;  296,935;  297,745
271,633;  297,829;  293,926;  292,835
271,722;  297,199;  292,255;  296,455
271,812;  296,799;  286,296;  289,275
271,901;  299,150;  292,326;  293,765
271,990;  296,400;  291,836;  290,915
272,080;  298,289;  290,635;  294,915
272,169;  305,329;  301,905;  302,555
272,259;  300,289;  293,225;  292,695
272,348;  311,690;  305,796;  308,535
272,438;  301,419;  296,935;  293,635
272,527;  309,900;  303,996;  304,365
272,616;  308,889;  301,866;  305,295
272,706;  330,129;  320,935;  323,195
272,795;  319,940;  314,076;  315,755
272,884;  305,620;  297,076;  299,515
272,974;  323,599;  317,975;  319,965
273,063;  341,759;  338,206;  337,765
273,152;  308,930;  310,306;  307,735
273,242;  327,840;  320,276;  324,915
273,331;  324,250;  319,315;  322,835
273,420;  312,460;  301,105;  310,255
273,510;  314,329;  307,355;  308,155
273,599;  311,020;  303,255;  306,195
273,688;  309,169;  302,605;  301,885
273,778;  289,829;  285,065;  287,095
273,867;  325,310;  320,266;  317,015
273,956;  309,030;  303,725;  303,805
274,045;  279,120;  273,966;  275,965
274,135;  310,990;  303,905;  305,375
274,224;  297,039;  286,516;  290,045
274,313;  312,310;  305,586;  307,745
274,402;  290,840;  284,796;  287,085
274,491;  315,900;  310,975;  312,995
274,581;  308,970;  301,415;  302,765
274,670;  300,539;  293,146;  294,385
274,759;  308,409;  299,405;  300,435
274,848;  281,599;  276,655;  279,925
274,937;  294,180;  289,945;  287,635
275,026;  291,190;  285,616;  287,835
275,116;  326,400;  316,415;  315,805
275,205;  297,129;  266,926;  271,135
275,294;  332,639;  302,315;  304,335
275,383;  307,819;  299,905;  297,985
275,472;  297,819;  290,005;  290,825
275,561;  295,220;  290,505;  290,285
275,650;  309,599;  306,046;  306,435
275,739;  300,669;  294,776;  297,985
275,828;  286,159;  274,635;  277,965
275,917;  316,470;  312,065;  306,825
276,006;  304,039;  295,426;  296,835
276,095;  303,409;  294,526;  298,665
276,184;  312,539;  309,556;  307,945
276,273;  307,060;  303,105;  304,505
276,362;  281,240;  275,896;  278,535
276,451;  296,750;  291,306;  291,915
276,540;  299,609;  295,896;  296,105
276,629;  297,090;  292,576;  293,225
276,718;  277,099;  270,695;  274,545
276,807;  276,840;  271,625;  274,825
276,896;  289,049;  280,526;  284,495
276,985;  292,789;  283,616;  289,365
277,074;  305,949;  299,105;  300,525
277,163;  301,759;  294,746;  299,085
277,252;  284,139;  279,646;  276,465
277,341;  290,889;  281,236;  289,265
277,430;  280,620;  276,845;  279,355
277,519;  307,770;  298,956;  301,695
277,608;  273,569;  266,546;  267,775
277,696;  275,979;  266,975;  269,445
277,785;  288,949;  284,095;  283,485
277,874;  304,440;  299,605;  296,795
277,963;  293,460;  288,155;  289,995
278,052;  271,419;  264,776;  265,525
278,141;  295,479;  288,415;  290,745
278,229;  299,329;  290,146;  291,935
278,318;  275,000;  268,236;  271,495
278,407;  291,359;  285,576;  285,935
278,496;  293,840;  289,915;  291,965
278,585;  307,479;  300,486;  302,275
278,673;  270,379;  263,836;  266,715
278,762;  276,379;  266,176;  270,485
278,851;  294,789;  285,496;  286,035
278,940;  307,699;  303,685;  303,305
279,028;  305,159;  296,306;  299,585
279,117;  292,379;  282,725;  286,655
279,206;  286,500;  279,475;  284,105
279,294;  287,770;  284,396;  286,665
279,383;  292,930;  286,646;  287,335
279,472;  303,840;  298,095;  298,295
279,561;  288,389;  283,355;  284,975
279,649;  316,329;  308,535;  308,935
279,738;  264,349;  255,566;  255,215
279,827;  316,099;  306,785;  308,805
279,915;  285,389;  275,285;  276,335
280,004;  297,220;  286,565;  288,905
280,092;  313,289;  305,236;  306,635
280,181;  290,479;  280,516;  282,605
280,270;  298,349;  277,866;  281,595
280,358;  306,970;  291,366;  288,915
280,447;  274,340;  261,415;  264,455
280,535;  283,190;  276,016;  275,945
280,624;  284,270;  274,185;  276,805
280,713;  286,009;  277,146;  283,385
280,801;  299,759;  293,116;  293,805
280,890;  296,590;  289,716;  295,475
280,978;  288,069;  280,755;  281,945
281,067;  257,680;  250,676;  255,865
281,155;  286,069;  274,855;  275,705
281,244;  325,479;  313,595;  316,445
281,332;  302,759;  290,845;  293,825
281,421;  281,310;  271,605;  273,675
281,509;  292,370;  284,646;  282,415
281,598;  271,470;  262,435;  263,765
281,686;  298,120;  290,776;  288,945
281,775;  295,139;  285,516;  290,815
281,863;  284,770;  278,016;  279,225
281,951;  281,620;  267,665;  270,735
282,040;  315,020;  300,315;  301,115
282,128;  303,759;  288,375;  294,235
282,217;  280,079;  265,926;  266,075
282,305;  306,690;  294,796;  294,045
282,393;  293,329;  286,505;  284,595
282,482;  293,490;  279,535;  283,255
282,570;  281,289;  266,945;  270,215
282,658;  291,960;  276,116;  277,715
282,747;  281,560;  265,026;  267,905
282,835;  320,590;  306,076;  309,035
282,923;  275,810;  264,655;  267,805
283,012;  298,109;  291,366;  296,345
283,100;  279,949;  269,185;  274,675
283,188;  269,579;  261,125;  262,525
283,277;  291,669;  284,336;  284,745
283,365;  280,909;  271,676;  278,375
283,453;  276,039;  264,755;  270,455
283,542;  297,900;  290,896;  293,765
283,630;  285,379;  276,195;  278,595
283,718;  279,000;  271,195;  274,365
283,806;  253,169;  241,706;  247,485
283,894;  279,750;  274,336;  274,395
283,983;  289,949;  282,165;  282,605
284,071;  295,259;  285,285;  291,495
284,159;  315,449;  309,125;  314,805
284,247;  298,759;  287,466;  288,555
284,335;  291,620;  286,935;  287,485
284,424;  292,180;  283,915;  288,465
284,512;  292,229;  283,475;  286,175
284,600;  289,259;  279,415;  280,145
284,688;  320,579;  312,815;  317,115
284,776;  293,710;  286,815;  287,745
284,864;  314,359;  302,125;  308,655
284,952;  297,000;  289,625;  289,025
285,041;  300,310;  298,255;  298,145
285,129;  307,520;  299,435;  302,445
285,217;  308,289;  300,056;  303,885
285,305;  324,310;  318,676;  319,885
285,393;  279,549;  275,776;  278,695
285,481;  301,659;  296,665;  298,405
285,569;  291,419;  282,966;  285,145
285,657;  301,829;  295,165;  296,255
285,745;  297,220;  292,655;  293,125
285,833;  299,539;  289,505;  293,165
285,921;  305,759;  298,116;  300,945
286,009;  307,419;  301,105;  303,655
286,097;  304,150;  298,236;  301,315
286,185;  289,819;  284,405;  284,795
286,273;  284,030;  283,415;  284,655
286,361;  315,879;  307,915;  311,825
286,449;  300,599;  296,195;  294,565
286,537;  304,849;  304,105;  302,085
286,625;  297,870;  291,185;  293,415
286,713;  285,049;  275,806;  280,315
286,801;  312,490;  312,076;  307,795
286,889;  323,349;  319,435;  320,055
286,976;  295,629;  287,905;  291,205
287,064;  312,090;  307,635;  311,875
287,152;  312,020;  303,576;  305,585
287,240;  312,629;  309,185;  308,845
287,328;  292,199;  287,685;  281,755
287,416;  298,099;  290,975;  292,385
287,504;  302,039;  294,435;  298,285
287,591;  304,909;  298,176;  300,225
287,679;  292,569;  286,095;  286,145
287,767;  305,329;  298,206;  296,985
287,855;  314,379;  303,736;  307,515
287,943;  312,549;  306,716;  309,435
288,030;  296,659;  293,456;  291,795
288,118;  321,049;  318,255;  318,995
288,206;  281,060;  274,956;  275,705
288,294;  309,379;  301,986;  304,135
288,382;  306,190;  300,776;  303,615
288,469;  312,449;  304,396;  308,895
288,557;  295,780;  294,095;  292,615
288,645;  325,699;  323,396;  323,315
288,732;  282,569;  278,915;  279,235
288,820;  314,509;  304,576;  306,785
288,908;  308,970;  304,826;  303,915
288,995;  320,329;  310,945;  310,305
289,083;  296,020;  293,026;  292,935
289,171;  337,190;  320,165;  325,565
289,258;  376,460;  322,176;  324,305
289,346;  433,030;  326,266;  329,365
289,434;  319,859;  303,435;  306,185
289,521;  289,359;  280,415;  286,295
289,609;  330,060;  320,426;  325,405
289,697;  318,079;  312,336;  315,125
289,784;  301,159;  295,445;  295,775
289,872;  313,090;  306,905;  313,015
289,959;  287,520;  282,375;  283,415
290,047;  304,039;  296,546;  300,865
290,134;  277,479;  272,665;  273,815
290,222;  315,990;  308,915;  308,665
290,310;  312,770;  304,905;  307,145
290,397;  334,220;  328,505;  332,835
290,485;  297,990;  290,815;  293,005
290,572;  318,979;  313,225;  314,645
290,660;  314,370;  306,385;  306,205
290,747;  300,139;  295,165;  292,775
290,835;  306,900;  299,016;  302,505
290,922;  309,090;  304,016;  305,515
291,009;  302,359;  297,676;  301,715
291,097;  304,609;  297,926;  300,755
291,184;  338,199;  332,716;  338,585
291,272;  289,840;  282,966;  288,375
291,359;  293,579;  283,915;  289,305
291,447;  309,829;  303,086;  304,735
291,534;  329,680;  327,326;  323,005
291,621;  306,049;  302,845;  301,105
291,709;  287,509;  285,716;  283,705
291,796;  321,159;  320,146;  316,555
291,884;  299,490;  291,466;  296,115
291,971;  325,810;  315,065;  320,295
292,058;  297,759;  288,725;  288,985
292,146;  300,579;  293,746;  297,955
292,233;  290,099;  285,426;  284,765
292,320;  299,210;  294,306;  297,685
292,408;  317,970;  309,086;  308,565
292,495;  305,659;  290,565;  293,085
292,582;  294,979;  286,845;  287,375
292,669;  290,579;  281,415;  286,055
292,757;  288,750;  282,176;  283,865
292,844;  320,049;  312,935;  313,175
292,931;  281,389;  275,176;  277,485
293,018;  298,819;  291,516;  289,915
293,106;  307,879;  299,966;  303,035
293,193;  278,530;  272,415;  274,385
293,280;  305,299;  297,255;  303,635
293,367;  299,199;  296,956;  295,215
293,455;  299,810;  293,185;  294,155
293,542;  283,780;  275,695;  281,445
293,629;  283,669;  279,035;  281,855
293,716;  313,789;  305,646;  311,195
293,803;  294,590;  287,105;  287,695
293,890;  317,210;  310,336;  312,555
293,978;  294,990;  284,105;  290,755
294,065;  290,539;  286,725;  284,345
294,152;  307,460;  302,385;  304,355
294,239;  280,379;  275,646;  274,625
294,326;  294,500;  286,746;  290,635
294,413;  286,430;  278,046;  278,465
294,500;  298,500;  292,586;  295,255
294,587;  288,319;  283,915;  287,195
294,674;  310,720;  305,875;  306,925
294,761;  292,859;  288,896;  287,945
294,848;  293,579;  286,866;  294,115
294,935;  295,599;  290,746;  290,555
295,022;  279,979;  272,396;  274,105
295,109;  268,990;  258,466;  262,665
295,196;  296,870;  291,405;  295,265
295,283;  283,710;  281,176;  278,745
295,370;  315,609;  308,975;  312,155
295,457;  296,609;  289,986;  290,435
295,544;  291,020;  285,105;  287,985
295,631;  296,870;  290,165;  295,805
295,718;  279,579;  272,676;  274,015
295,805;  306,729;  296,225;  296,685
295,892;  310,289;  300,005;  304,445
295,979;  297,900;  291,266;  292,755
296,066;  304,520;  293,996;  296,145
296,153;  307,280;  296,026;  296,355
296,240;  308,590;  299,206;  300,535
296,327;  299,780;  285,206;  285,615
296,413;  323,490;  301,285;  305,075
296,500;  337,190;  302,755;  305,145
296,587;  516,719;  288,616;  286,065
296,674; 1644,309;  294,396;  297,335
296,761;  812,950;  300,095;  298,245
296,848;  307,609;  281,956;  285,815
296,934;  303,870;  290,966;  295,265
297,021;  299,440;  292,565;  292,975
297,108;  282,960;  276,366;  280,895
297,195;  298,780;  291,466;  294,705
297,282;  293,870;  286,535;  286,195
297,368;  316,490;  310,026;  305,975
297,455;  286,799;  279,155;  283,145
297,542;  316,889;  311,375;  313,235
297,629;  306,180;  299,016;  300,205
297,715;  312,900;  308,285;  310,385
297,802;  309,750;  300,466;  303,285
297,889;  316,870;  311,716;  313,025
297,975;  329,419;  322,836;  323,685
298,062;  318,960;  310,505;  312,995
298,149;  282,720;  273,505;  274,905
298,235;  296,490;  291,135;  294,075
298,322;  299,220;  294,806;  292,785
298,409;  316,409;  311,195;  312,715
298,495;  286,990;  285,435;  283,435
298,582;  313,190;  307,516;  308,065
298,669;  299,789;  290,526;  294,245
298,755;  303,740;  299,065;  302,235
298,842;  309,889;  304,755;  309,095
298,928;  306,979;  303,855;  304,595
299,015;  303,340;  294,896;  296,705
299,102;  324,319;  318,986;  320,565
299,188;  318,579;  315,956;  316,045
299,275;  316,780;  309,926;  309,365
299,361;  284,609;  278,875;  281,665
299,448;  314,970;  312,466;  310,885
299,534;  316,039;  312,355;  312,735
299,621;  308,530;  304,655;  303,865
299,707;  306,690;  299,016;  304,675
299,794;  325,099;  319,885;  319,685
299,880;  326,289;  317,076;  318,325
299,967;  302,199;  296,345;  296,295
300,053;  303,960;  295,935;  299,065
300,140;  332,740;  323,086;  328,875
300,226;  317,030;  313,885;  313,595
300,312;  312,900;  307,276;  306,695
300,399;  311,210;  305,505;  308,465
300,485;  306,639;  297,776;  301,725
300,572;  285,090;  281,655;  281,655
300,658;  295,240;  297,216;  294,585
300,744;  313,590;  310,706;  311,315
300,831;  320,639;  313,595;  318,275
300,917;  325,329;  321,676;  320,915
301,004;  315,379;  311,556;  311,015
301,090;  286,090;  277,785;  280,095
301,176;  290,970;  284,255;  288,205
301,263;  317,960;  313,676;  314,925
301,349;  299,699;  289,475;  293,305
301,435;  288,990;  284,276;  285,095
301,521;  322,590;  314,625;  313,245
301,608;  315,270;  314,695;  315,515
301,694;  306,590;  297,896;  300,535
301,780;  307,590;  303,046;  298,285
301,867;  291,960;  280,836;  285,265
301,953;  310,430;  296,595;  301,165
302,039;  383,180;  295,116;  297,515
302,125;  544,640;  298,445;  304,125
302,211;  363,629;  332,926;  334,115
302,298;  353,220;  301,926;  305,295
302,384;  303,060;  281,116;  287,095
302,470;  296,659;  289,505;  291,305
302,556;  312,620;  301,935;  305,645
302,642;  298,579;  293,456;  295,155
302,729;  303,680;  289,306;  293,525
302,815;  321,340;  317,966;  319,775
302,901;  299,299;  296,475;  298,745
302,987;  310,699;  307,716;  308,245
303,073;  306,810;  304,185;  302,795
303,159;  302,210;  296,945;  298,695
303,245;  289,359;  284,336;  290,495
303,331;  288,710;  283,486;  286,455
303,417;  300,960;  294,556;  296,145
303,503;  317,159;  310,046;  312,155
303,590;  292,289;  289,146;  291,705
303,676;  302,549;  299,505;  300,385
303,762;  293,340;  287,185;  287,835
303,848;  315,909;  311,026;  312,055
303,934;  312,520;  304,915;  307,775
304,020;  307,909;  301,796;  304,745
304,106;  317,970;  309,975;  314,015
304,192;  301,930;  291,796;  296,765
304,278;  310,090;  302,896;  304,455
304,364;  330,919;  323,026;  324,755
304,450;  305,509;  301,496;  304,095
304,535;  310,409;  304,005;  304,245
304,621;  307,030;  301,565;  302,205
304,707;  308,930;  306,296;  307,635
304,793;  323,590;  318,625;  318,575
304,879;  312,669;  306,776;  310,585
304,965;  316,039;  312,845;  313,365
305,051;  313,220;  308,616;  311,355
305,137;  323,169;  318,146;  324,235
305,223;  294,710;  291,445;  293,725
305,309;  320,859;  313,496;  317,755
305,394;  317,549;  311,996;  311,465
305,480;  303,150;  299,426;  304,775
305,566;  310,699;  309,355;  310,525
305,652;  319,949;  313,605;  317,885
305,738;  352,729;  349,206;  353,435
305,824;  319,659;  316,016;  315,095
305,909;  327,280;  323,815;  325,155
305,995;  293,729;  289,595;  290,025
306,081;  350,000;  348,345;  350,435
306,167;  308,409;  303,966;  307,875
306,252;  327,599;  324,375;  325,505
306,338;  341,490;  331,366;  335,515
306,424;  310,990;  306,595;  307,415
306,510;  322,319;  316,105;  319,795
306,595;  328,150;  323,685;  322,125
306,681;  321,329;  316,926;  318,895
306,767;  311,449;  305,336;  309,425
306,852;  335,579;  328,255;  331,375
306,938;  326,180;  325,796;  325,905
307,024;  304,229;  302,875;  304,755
307,109;  338,620;  336,065;  338,965
307,195;  320,789;  316,326;  318,385
307,281;  322,289;  318,716;  318,575
307,366;  317,690;  313,345;  310,455
307,452;  320,049;  312,426;  316,335
307,537;  301,349;  296,776;  298,485
307,623;  296,190;  292,105;  296,985
307,709;  315,349;  309,885;  310,795
307,794;  291,340;  288,576;  291,835
307,880;  323,590;  320,236;  319,735
307,965;  312,129;  307,456;  307,525
308,051;  299,780;  297,195;  298,065
308,136;  300,220;  297,165;  296,745
308,222;  307,659;  300,366;  302,045
308,307;  300,129;  295,116;  296,645
308,393;  299,690;  295,535;  300,335
308,478;  324,970;  321,826;  318,975
308,564;  292,650;  295,516;  288,925
308,649;  311,220;  308,496;  308,295
308,735;  308,759;  294,155;  300,535
308,820;  325,919;  320,655;  319,455
308,906;  300,069;  291,625;  300,515
308,991;  342,970;  341,076;  338,375
309,076;  323,799;  319,336;  320,645
309,162;  288,409;  283,945;  283,805
309,247;  311,440;  309,945;  308,415
309,333;  297,490;  291,646;  297,855
309,418;  308,430;  298,665;  301,955
309,503;  301,569;  297,646;  300,235
309,589;  306,409;  303,725;  305,345
309,674;  292,479;  290,945;  289,235
309,759;  308,370;  303,315;  304,195
309,845;  317,289;  311,016;  312,415
309,930;  312,530;  305,966;  307,375
310,015;  285,340;  276,095;  276,835
310,101;  321,060;  315,616;  319,905
310,186;  292,879;  285,426;  288,565
310,271;  302,479;  297,296;  298,295
310,357;  299,359;  297,526;  296,455
310,442;  312,549;  302,445;  303,865
310,527;  302,259;  297,766;  301,125
310,612;  280,520;  278,195;  281,425
310,698;  323,659;  319,725;  321,135
310,783;  307,520;  301,176;  302,685
310,868;  299,680;  294,285;  295,125
310,953;  288,609;  284,165;  285,195
311,038;  318,970;  311,146;  310,075
311,124;  300,620;  294,635;  290,925
311,209;  282,500;  276,736;  277,355
311,294;  319,150;  310,206;  312,575
311,379;  282,940;  276,785;  277,345
311,464;  304,590;  297,405;  297,635
311,549;  290,079;  282,385;  284,505
311,634;  296,250;  290,396;  286,805
311,719;  323,049;  316,016;  315,415
311,805;  296,020;  289,266;  291,605
311,890;  306,620;  295,165;  295,925
311,975;  297,359;  281,526;  286,055
312,060;  313,879;  298,146;  302,435
312,145;  295,109;  277,586;  276,025
312,230;  322,169;  290,815;  296,495
312,315;  336,259;  294,065;  296,045
312,400;  406,690;  296,396;  299,795
312,485; 1562,390;  290,535;  292,475
312,570; 1262,099;  277,125;  279,615
312,655;  350,789;  308,176;  313,325
312,740;  332,549;  301,616;  302,005
312,825;  340,199;  304,105;  307,725
312,910;  359,780;  307,736;  309,235
312,995;  440,270;  296,236;  298,245
313,080; 1943,920;  285,655;  286,805
313,165; 2188,929;  303,565;  305,305
313,250;  375,210;  287,276;  287,825
313,335;  332,259;  307,435;  312,125
313,419;  286,639;  267,466;  268,635
313,504;  325,020;  313,355;  315,225
313,589;  309,150;  295,216;  297,545
313,674;  317,629;  307,206;  310,085
313,759;  293,379;  281,556;  282,625
313,844;  303,620;  292,776;  291,005
313,929;  300,569;  289,945;  291,695
314,014;  320,400;  313,306;  315,005
314,098;  308,479;  299,035;  300,425
314,183;  274,490;  263,505;  263,795
314,268;  303,129;  296,496;  298,955
314,353;  315,109;  302,026;  306,185
314,438;  317,169;  306,905;  311,515
314,522;  316,750;  309,486;  308,535
314,607;  311,810;  307,565;  307,855
314,692;  306,690;  301,885;  303,855
314,777;  299,079;  291,766;  292,395
314,861;  283,770;  277,285;  276,385
314,946;  320,349;  315,116;  317,565
315,031;  297,699;  291,875;  294,115
315,115;  307,990;  306,206;  308,065
315,200;  316,169;  312,146;  313,065
315,285;  296,579;  289,486;  289,595
315,369;  292,879;  287,945;  288,545
315,454;  315,659;  311,905;  311,025
315,539;  312,780;  310,246;  307,795
315,623;  312,129;  309,426;  313,225
315,708;  337,900;  335,605;  336,825
315,793;  303,490;  297,986;  298,155
315,877;  309,849;  302,975;  305,445
315,962;  293,289;  289,105;  291,925
316,046;  321,569;  317,065;  319,225
316,131;  340,180;  334,516;  337,215
316,216;  313,659;  310,315;  310,785
316,300;  304,310;  303,345;  302,165
316,385;  327,229;  325,315;  324,305
316,469;  331,289;  330,625;  331,955
316,554;  302,409;  296,005;  298,425
316,638;  302,740;  296,725;  301,565
316,723;  297,690;  292,546;  293,795
316,807;  299,829;  299,595;  299,275
316,892;  291,509;  288,975;  289,925
316,976;  316,810;  314,405;  316,505
317,061;  312,109;  306,035;  305,965
317,145;  327,229;  327,655;  325,965
317,230;  323,699;  321,505;  319,905
317,314;  280,079;  275,565;  275,085
317,398;  316,009;  310,706;  312,245
317,483;  294,000;  290,026;  291,085
317,567;  321,310;  315,326;  317,865
317,652;  289,799;  283,526;  286,625
317,736;  309,449;  308,776;  309,285
317,820;  334,060;  329,005;  334,665
317,905;  306,789;  306,706;  307,035
317,989;  303,919;  298,285;  300,875
318,073;  302,259;  298,076;  297,705
318,158;  289,349;  284,966;  285,565
318,242;  304,139;  296,845;  299,095
318,326;  289,740;  283,155;  284,015
318,411;  297,710;  295,125;  296,565
318,495;  289,799;  285,776;  287,165
318,579;  291,349;  288,746;  289,305
318,664;  283,409;  280,315;  284,255
318,748;  311,199;  305,996;  310,145
318,832;  296,629;  290,806;  289,475
318,916;  278,650;  274,785;  277,335
319,001;  298,329;  299,945;  301,485
319,085;  296,659;  292,885;  290,905
319,169;  297,539;  293,396;  294,485
319,253;  291,669;  287,216;  285,525
319,337;  307,970;  306,246;  304,885
319,422;  316,259;  316,125;  313,225
319,506;  289,240;  283,326;  285,905
319,590;  307,799;  303,915;  305,525
319,674;  296,659;  291,926;  295,405
319,758;  301,479;  295,165;  300,215
319,842;  314,280;  306,135;  309,155
319,926;  298,629;  294,815;  295,205
320,010;  271,150;  267,046;  269,575
320,095;  288,609;  280,926;  284,685
320,179;  284,729;  279,125;  281,175
320,263;  285,930;  277,385;  285,805
320,347;  278,990;  271,296;  279,075
320,431;  277,039;  273,435;  274,355
320,515;  302,030;  296,375;  299,935
320,599;  275,129;  269,866;  273,825
320,683;  309,810;  305,706;  305,495
320,767;  269,949;  266,236;  266,205
320,851;  290,319;  281,855;  287,785
320,935;  319,319;  312,565;  318,275
321,019;  294,139;  292,975;  290,075
321,103;  284,270;  278,135;  280,585
321,187;  279,919;  273,165;  273,265
321,271;  293,669;  294,616;  296,825
321,355;  286,900;  281,595;  283,805
321,439;  308,419;  301,216;  301,725
321,523;  283,949;  282,266;  284,705
321,606;  290,009;  287,426;  288,215
321,690;  290,810;  287,026;  288,215
321,774;  294,699;  288,336;  292,205
321,858;  295,299;  292,966;  291,945
321,942;  300,359;  294,276;  298,975
322,026;  289,069;  283,315;  282,695
322,110;  297,569;  293,146;  295,755
322,194;  300,069;  295,355;  301,055
322,277;  291,720;  286,135;  287,285
322,361;  281,389;  278,595;  281,215
322,445;  297,349;  289,315;  291,095
322,529;  298,879;  297,716;  299,645
322,613;  301,490;  297,206;  297,795
322,696;  273,099;  267,695;  272,865
322,780;  288,000;  283,026;  283,485
322,864;  279,460;  272,625;  279,835
322,948;  295,379;  292,326;  295,965
323,031;  281,889;  281,565;  282,215
323,115;  289,460;  284,586;  285,215
323,199;  302,419;  296,565;  299,105
323,282;  312,389;  307,496;  310,065
323,366;  292,889;  287,296;  293,625
323,450;  279,319;  273,496;  275,835
323,533;  319,280;  314,576;  317,415
323,617;  273,479;  268,695;  271,585
323,701;  287,419;  281,105;  283,575
323,784;  296,000;  292,576;  294,205
323,868;  298,780;  297,866;  299,875
323,952;  297,740;  290,966;  294,175
324,035;  309,960;  305,926;  310,825
324,119;  304,799;  295,466;  298,455
324,202;  293,990;  286,836;  292,745
324,286;  293,229;  284,986;  286,605
324,370;  299,389;  293,105;  296,765
324,453;  303,289;  299,616;  301,745
324,537;  299,299;  294,426;  298,035
324,620;  291,770;  286,635;  291,765
324,704;  276,919;  270,445;  276,525
324,787;  298,810;  294,875;  296,265
324,871;  315,359;  310,986;  315,255
324,954;  314,909;  312,246;  315,985
325,038;  308,430;  306,466;  306,985
325,121;  315,270;  308,695;  312,075
325,205;  297,699;  290,396;  293,295
325,288;  284,770;  279,556;  285,675
325,371;  304,359;  298,945;  302,395
325,455;  318,840;  314,026;  312,045
325,538;  288,970;  281,516;  287,185
325,622;  324,169;  320,806;  321,295
325,705;  299,650;  297,716;  298,675
325,788;  319,449;  313,625;  316,645
325,872;  302,590;  300,796;  300,745
325,955;  327,049;  319,845;  325,065
326,039;  310,139;  309,576;  312,795
326,122;  315,859;  310,746;  311,665
326,205;  316,000;  311,806;  310,235
326,289;  321,710;  313,986;  319,245
326,372;  303,579;  294,746;  299,195
326,455;  328,310;  323,095;  324,405
326,538;  320,520;  312,336;  316,545
326,622;  324,120;  318,396;  320,075
326,705;  291,960;  287,315;  287,875
326,788;  322,859;  321,266;  322,405
326,871;  322,970;  315,576;  317,965
326,955;  316,599;  313,836;  315,225
327,038;  312,699;  310,116;  310,855
327,121;  307,849;  301,516;  307,855
327,204;  320,340;  313,216;  314,045
327,288;  334,109;  328,956;  332,375
327,371;  297,810;  288,185;  296,955
327,454;  316,120;  313,065;  313,845
327,537;  305,579;  299,815;  302,435
327,620;  334,210;  322,935;  330,145
327,703;  312,150;  309,076;  310,615
327,786;  313,530;  311,076;  312,115
327,870;  331,220;  323,155;  328,715
327,953;  308,299;  301,155;  305,785
328,036;  300,419;  293,105;  299,035
328,119;  325,240;  317,576;  321,135
328,202;  310,109;  301,885;  305,875
328,285;  333,460;  326,776;  329,015
328,368;  323,259;  320,935;  322,625
328,451;  322,849;  320,635;  322,565
328,534;  312,159;  301,266;  307,075
328,617;  315,629;  305,676;  311,785
328,700;  329,940;  326,505;  326,695
328,783;  325,970;  320,785;  322,875
328,866;  319,289;  314,095;  319,935
328,949;  326,789;  319,966;  326,555
329,032;  304,069;  297,826;  300,605
329,115;  297,400;  290,905;  295,945
329,198;  286,590;  282,956;  283,785
329,281;  302,289;  299,336;  298,465
329,364;  321,659;  316,246;  319,245
329,447;  312,270;  307,176;  309,255
329,530;  330,060;  328,155;  328,175
329,613;  308,000;  300,565;  306,725
329,696;  333,460;  326,806;  330,715
329,778;  318,159;  311,306;  316,915
329,861;  299,079;  295,236;  299,565
329,944;  325,690;  321,685;  327,225
330,027;  313,979;  311,576;  315,115
330,110;  311,190;  307,595;  311,705
330,193;  299,329;  295,306;  299,955
330,275;  320,490;  312,296;  315,835
330,358;  297,190;  291,776;  296,185
330,441;  328,740;  323,586;  325,365
330,524;  312,120;  305,216;  311,095
330,607;  305,620;  304,345;  306,905
330,689;  317,690;  313,105;  314,535
330,772;  313,000;  311,105;  312,425
330,855;  328,930;  325,065;  327,855
330,938;  325,039;  312,315;  321,275
331,020;  321,049;  317,176;  320,535
331,103;  298,770;  293,035;  294,505
331,186;  309,909;  305,146;  307,085
331,268;  303,909;  293,565;  298,695
331,351;  319,520;  313,026;  316,455
331,434;  312,270;  308,385;  312,645
331,516;  323,639;  319,076;  321,185
331,599;  309,109;  297,095;  301,425
331,682;  313,490;  310,736;  310,985
331,764;  298,240;  293,326;  297,915
331,847;  322,590;  313,716;  315,705
331,929;  297,720;  290,026;  293,225
332,012;  313,430;  309,625;  310,055
332,095;  328,940;  323,306;  326,625
332,177;  324,909;  320,806;  324,285
332,260;  331,259;  327,526;  328,035
332,342;  316,539;  309,246;  314,445
332,425;  319,079;  312,516;  311,505
332,507;  313,639;  308,526;  311,575
332,590;  293,789;  287,595;  291,655
332,672;  300,319;  294,885;  298,455
332,755;  314,139;  306,855;  311,605
332,837;  314,299;  310,716;  312,255
332,920;  317,530;  309,076;  315,155
333,002;  330,220;  325,676;  328,895
333,085;  314,490;  313,375;  315,165
333,167;  304,079;  296,875;  298,575
333,249;  303,069;  294,526;  298,145
333,332;  297,139;  293,296;  297,715
333,414;  304,379;  300,035;  304,875
333,497;  307,389;  300,255;  302,305
333,579;  307,590;  300,996;  306,375
333,661;  324,590;  319,706;  320,745
333,744;  299,259;  293,695;  297,125
333,826;  313,039;  305,766;  306,065
333,908;  323,859;  313,896;  316,665
333,991;  309,359;  291,266;  291,545
334,073;  467,460;  312,706;  318,525
334,155;  360,169;  304,086;  305,525
334,238;  327,919;  318,576;  326,145
334,320;  301,190;  297,046;  300,585
334,402;  307,319;  302,996;  304,895
334,485;  306,710;  303,655;  304,015
334,567;  301,909;  299,776;  301,975
334,649;  283,299;  278,426;  282,925
334,731;  319,479;  313,456;  317,305
334,813;  319,009;  315,605;  320,355
334,896;  294,460;  290,185;  294,595
334,978;  312,379;  309,165;  302,585
335,060;  309,560;  304,255;  304,235
335,142;  302,419;  301,665;  302,275
335,224;  312,270;  309,766;  311,745
335,307;  300,990;  297,456;  298,965
335,389;  316,259;  310,385;  317,305
335,471;  306,940;  299,896;  306,115
335,553;  326,419;  319,866;  318,905
335,635;  316,099;  312,836;  315,315
335,717;  304,139;  298,195;  300,145
335,799;  325,129;  322,695;  323,585
335,881;  285,909;  278,385;  282,845
335,963;  294,740;  291,796;  293,005
336,045;  301,690;  295,516;  301,085
336,128;  279,139;  270,945;  275,225
336,210;  291,759;  288,996;  292,295
336,292;  300,919;  297,845;  300,615
336,374;  311,609;  300,956;  306,155
336,456;  292,289;  285,616;  288,495
336,538;  307,620;  303,165;  304,435
336,620;  313,829;  310,576;  312,205
336,702;  295,609;  294,766;  294,235
336,783;  306,349;  302,556;  304,225
336,865;  312,020;  304,176;  305,725
336,947;  310,509;  308,486;  311,205
337,029;  286,699;  281,826;  282,945
337,111;  322,259;  316,266;  316,735
337,193;  285,650;  280,986;  284,795
337,275;  313,579;  310,815;  314,535
337,357;  324,199;  318,815;  324,805
337,439;  311,509;  305,255;  310,655
337,521;  282,690;  277,225;  280,915
337,602;  303,460;  298,435;  301,085
337,684;  320,000;  315,635;  317,455
337,766;  316,210;  312,266;  312,305
337,848;  303,770;  295,086;  301,025
337,930;  306,099;  303,165;  306,525
338,012;  300,009;  298,586;  299,555
338,093;  317,240;  312,396;  315,895
338,175;  319,879;  318,195;  321,575
338,257;  311,180;  306,945;  309,225
338,339;  298,409;  294,086;  300,165
338,420;  316,150;  310,986;  310,895
338,502;  303,650;  298,836;  304,265
338,584;  291,379;  286,736;  289,235
338,666;  306,840;  303,426;  302,365
338,747;  337,210;  330,806;  334,875
338,829;  310,560;  309,176;  309,265
338,911;  298,889;  296,236;  298,915
338,992;  295,190;  295,746;  294,435
339,074;  308,770;  306,155;  307,855
339,156;  302,789;  298,176;  303,395
339,237;  328,609;  325,035;  327,765
339,319;  299,440;  294,935;  300,045
339,400;  311,250;  309,065;  311,225
339,482;  283,639;  278,165;  280,605
339,564;  318,750;  317,026;  316,575
339,645;  309,740;  304,595;  308,105
339,727;  297,870;  290,216;  294,375
339,808;  324,389;  317,685;  322,555
339,890;  306,400;  299,956;  302,415
339,971;  316,169;  307,016;  315,055
340,053;  339,220;  336,746;  335,255
340,134;  299,859;  296,535;  298,415
340,216;  320,440;  315,556;  319,645
340,297;  303,319;  298,396;  301,525
340,379;  320,680;  314,736;  316,975
340,460;  308,240;  306,685;  306,615
340,542;  302,930;  294,535;  297,775
340,623;  312,310;  307,926;  312,435
340,705;  299,680;  297,516;  295,795
340,786;  293,669;  289,685;  291,925
340,868;  310,699;  308,826;  304,055
340,949;  286,509;  285,605;  286,145
341,030;  328,470;  321,435;  328,715
341,112;  286,599;  280,565;  284,075
341,193;  276,530;  270,135;  273,595
341,274;  325,319;  322,176;  320,965
341,356;  326,520;  320,716;  321,795
341,437;  299,859;  301,635;  300,825
341,518;  315,020;  307,176;  314,795
341,600;  321,710;  320,866;  322,465
341,681;  331,490;  328,866;  332,375
341,762;  325,049;  325,206;  323,705
341,844;  296,199;  287,146;  292,185
341,925;  309,509;  308,225;  311,205
342,006;  323,539;  320,426;  323,055
342,087;  293,650;  288,095;  292,095
342,169;  311,229;  307,026;  309,845
342,250;  289,310;  286,935;  285,935
342,331;  303,020;  298,706;  299,075
342,412;  312,900;  307,655;  310,045
342,493;  294,690;  289,415;  293,325
342,575;  329,669;  327,095;  327,355
342,656;  320,859;  318,466;  318,265
342,737;  330,639;  329,836;  330,295
342,818;  312,069;  307,996;  309,015
342,899;  317,329;  314,505;  317,165
342,980;  311,690;  306,695;  310,155
343,061;  310,299;  303,065;  304,715
343,143;  324,849;  319,535;  319,565
343,224;  312,900;  306,706;  305,915
343,305;  304,250;  299,625;  303,115
343,386;  304,280;  297,996;  300,475
343,467;  307,560;  303,155;  305,535
343,548;  307,199;  304,176;  305,935
343,629;  320,280;  316,405;  317,625
343,710;  327,289;  322,766;  321,015
343,791;  328,979;  325,065;  327,935
343,872;  302,579;  298,975;  297,795
343,953;  322,310;  314,826;  316,625
344,034;  319,819;  319,475;  324,485
344,115;  309,159;  304,255;  303,425
344,196;  302,039;  298,935;  302,165
344,277;  298,650;  293,306;  294,615
344,358;  310,099;  304,755;  307,345
344,439;  296,970;  293,975;  294,205
344,520;  301,819;  298,546;  300,975
344,601;  319,789;  314,646;  315,525
344,681;  305,299;  302,426;  303,825
344,762;  287,659;  283,466;  287,625
344,843;  280,180;  275,996;  281,125
344,924;  311,109;  303,635;  306,085
345,005;  294,699;  287,176;  288,725
345,086;  314,039;  307,665;  309,725
345,167;  296,460;  293,986;  295,575
345,247;  329,990;  323,896;  328,905
345,328;  317,919;  315,315;  317,705
345,409;  308,329;  307,056;  309,355
345,490;  314,400;  308,415;  314,245
345,571;  311,949;  304,875;  312,045
345,651;  286,729;  279,456;  279,055
345,732;  313,729;  307,285;  312,275
345,813;  318,409;  311,836;  317,355
345,894;  290,509;  285,785;  287,595
345,974;  309,440;  309,556;  311,845
346,055;  299,979;  296,435;  295,735
346,136;  311,409;  304,405;  306,245
346,216;  330,539;  324,945;  328,565
346,297;  307,120;  306,565;  304,225
346,378;  297,379;  291,996;  294,005
346,458;  313,539;  307,375;  313,405
346,539;  307,829;  302,306;  305,975
346,620;  308,299;  305,815;  306,685
346,700;  293,479;  288,755;  289,765
346,781;  287,829;  284,556;  286,765
346,861;  307,669;  304,336;  307,325
346,942;  306,039;  304,336;  302,715
347,023;  318,599;  317,885;  316,005
347,103;  302,229;  297,396;  302,825
347,184;  300,400;  294,475;  296,785
347,264;  295,759;  294,565;  296,805
347,345;  288,220;  290,526;  295,525
347,425;  291,229;  285,125;  290,565
347,506;  285,740;  283,595;  283,195
347,586;  292,829;  289,725;  292,435
347,667;  310,169;  307,616;  304,445
347,747;  313,000;  311,116;  310,775
347,828;  301,120;  296,486;  296,465
347,908;  308,329;  303,306;  307,175
347,988;  305,669;  298,655;  306,125
348,069;  313,770;  311,056;  311,395
348,149;  309,500;  303,956;  309,065
348,230;  313,949;  309,956;  310,945
348,310;  286,699;  284,185;  285,715
348,390;  287,810;  288,526;  288,625
348,471;  307,009;  303,665;  305,125
348,551;  295,370;  290,695;  293,935
348,632;  297,139;  289,505;  294,065
348,712;  291,849;  292,706;  295,115
348,792;  329,299;  329,836;  329,985
348,873;  282,930;  281,905;  283,045
348,953;  292,270;  289,845;  290,395
349,033;  300,109;  297,466;  299,465
349,113;  292,280;  286,076;  286,905
349,194;  304,680;  301,595;  304,825
349,274;  308,389;  304,796;  307,395
349,354;  307,699;  303,046;  308,435
349,434;  302,090;  300,116;  301,925
349,515;  321,710;  316,486;  322,185
349,595;  307,900;  302,206;  302,035
349,675;  310,009;  305,635;  308,015
349,755;  302,079;  296,746;  297,615
349,835;  307,659;  301,195;  307,695
349,916;  301,940;  298,435;  303,915
349,996;  295,389;  291,105;  291,745
350,076;  316,020;  312,375;  317,645
350,156;  285,659;  284,836;  287,665
350,236;  313,530;  314,116;  311,925
350,316;  296,259;  292,975;  295,765
350,396;  309,060;  305,646;  310,065
350,476;  307,049;  301,826;  304,275
350,556;  299,319;  293,966;  299,935
350,637;  323,940;  321,005;  321,825
350,717;  294,310;  288,445;  291,825
350,797;  307,840;  302,616;  305,905
350,877;  297,620;  289,875;  294,705
350,957;  301,699;  297,635;  300,095
351,037;  304,169;  298,556;  303,455
351,117;  298,849;  296,276;  296,555
351,197;  304,319;  303,366;  306,305
351,277;  303,909;  300,556;  301,575
351,357;  318,930;  308,806;  314,445
351,437;  312,329;  306,105;  307,755
351,516;  320,139;  317,986;  318,355
351,596;  293,690;  292,896;  296,025
351,676;  294,020;  290,405;  294,265
351,756;  327,720;  323,426;  326,135
351,836;  320,909;  313,866;  317,935
351,916;  297,270;  297,905;  298,975
351,996;  306,829;  303,996;  305,265
352,076;  304,669;  303,486;  303,085
352,156;  322,229;  319,556;  320,405
352,235;  304,509;  301,255;  300,955
352,315;  314,789;  312,456;  314,415
352,395;  311,190;  308,206;  309,425
352,475;  320,409;  315,405;  320,955
352,555;  332,930;  330,236;  330,635
352,634;  326,629;  321,956;  326,705
352,714;  305,799;  302,595;  304,055
352,794;  357,199;  354,466;  358,075
352,874;  321,120;  314,685;  317,555
352,953;  341,530;  337,676;  339,095
353,033;  326,889;  319,306;  320,925
353,113;  335,389;  332,135;  336,575
353,193;  331,240;  328,046;  329,935
353,272;  336,699;  333,135;  334,365
353,352;  313,609;  307,035;  311,285
353,432;  348,940;  343,005;  347,495
353,511;  330,590;  326,185;  330,665
353,591;  364,310;  361,616;  362,555
353,671;  335,479;  331,926;  333,015
353,750;  332,479;  332,296;  331,275
353,830;  320,669;  313,646;  317,015
353,909;  344,829;  339,836;  343,655
353,989;  319,690;  317,385;  320,255
354,069;  320,030;  319,456;  319,155
354,148;  343,629;  335,035;  339,585
354,228;  319,150;  315,695;  316,905
354,307;  334,970;  329,405;  332,345
354,387;  325,150;  322,095;  322,965
354,466;  318,940;  311,635;  316,045
354,546;  340,039;  335,135;  337,645
354,625;  323,460;  319,815;  320,355
354,705;  326,759;  324,246;  326,865
354,784;  318,579;  316,445;  318,195
354,864;  319,919;  316,635;  317,385
354,943;  338,379;  333,695;  339,105
355,023;  315,060;  310,996;  312,285
355,102;  363,470;  362,866;  363,435
355,181;  319,770;  315,966;  318,045
355,261;  345,280;  338,056;  342,165
355,340;  308,909;  303,845;  307,115
355,420;  345,229;  340,105;  342,305
355,499;  325,319;  322,975;  325,635
355,578;  318,590;  315,276;  316,885
355,658;  338,280;  332,875;  333,745
355,737;  327,180;  317,576;  319,005
355,816;  328,789;  323,276;  324,605
355,896;  320,049;  316,026;  321,355
355,975;  312,090;  307,355;  310,055
356,054;  312,710;  311,935;  312,455
356,133;  296,430;  290,565;  293,305
356,213;  329,220;  324,845;  324,825
356,292;  309,560;  304,016;  309,325
356,371;  318,079;  314,146;  314,035
356,451;  328,629;  324,755;  327,685
356,530;  355,030;  349,496;  350,795
356,609;  316,530;  311,146;  315,535
356,688;  318,329;  316,475;  316,165
356,767;  310,569;  304,695;  309,855
356,846;  326,020;  327,035;  327,235
356,926;  346,460;  340,016;  343,965
357,005;  321,449;  318,345;  318,565
357,084;  309,949;  304,466;  308,385
357,163;  321,829;  317,706;  317,185
357,242;  324,449;  320,146;  319,515
357,321;  317,909;  314,496;  316,575
357,400;  320,039;  321,236;  318,865
357,479;  325,210;  317,725;  320,795
357,559;  329,569;  321,405;  325,705
357,638;  303,799;  300,616;  298,815
357,717;  315,699;  313,746;  311,555
357,796;  335,530;  329,266;  330,875
357,875;  314,229;  314,466;  313,455
357,954;  315,960;  310,155;  313,855
358,033;  324,319;  323,405;  320,935
358,112;  333,699;  329,966;  328,315
358,191;  323,240;  315,276;  318,965
358,270;  301,419;  295,505;  297,695
358,349;  324,879;  321,625;  323,725
358,428;  328,490;  322,445;  326,125
358,507;  328,530;  321,366;  325,105
358,585;  324,520;  320,355;  325,525
358,664;  338,520;  332,266;  334,505
358,743;  326,870;  323,776;  326,515
358,822;  340,180;  334,475;  338,195
358,901;  311,120;  309,176;  309,505
358,980;  316,770;  310,885;  313,735
359,059;  334,229;  328,616;  332,255
359,138;  334,979;  329,415;  328,565
359,216;  326,650;  322,225;  327,485
359,295;  315,650;  309,475;  309,515
359,374;  334,889;  330,026;  333,455
359,453;  325,020;  316,345;  320,885
359,532;  307,650;  304,526;  308,455
359,610;  323,299;  319,556;  323,285
359,689;  337,289;  331,116;  333,025
359,768;  318,900;  313,706;  315,305
359,847;  306,819;  302,065;  305,385
359,925;  311,370;  304,105;  307,215
360,004;  305,229;  299,565;  302,585
360,083;  321,949;  320,165;  321,795
360,161;  312,500;  305,676;  309,885
360,240;  294,319;  288,725;  291,455
360,319;  319,129;  318,276;  317,225
360,397;  328,000;  324,986;  331,265
360,476;  325,069;  318,296;  324,355
360,555;  348,729;  345,565;  346,835
360,633;  305,770;  304,456;  304,945
360,712;  314,690;  309,056;  311,825
360,790;  336,180;  330,065;  331,185
360,869;  313,470;  310,266;  313,085
360,948;  325,009;  322,466;  322,235
361,026;  302,909;  300,065;  301,245
361,105;  313,520;  306,116;  309,875
361,183;  326,079;  324,725;  326,345
361,262;  304,690;  302,375;  307,465
361,340;  309,039;  305,815;  306,875
361,419;  290,639;  289,896;  290,845
361,497;  347,919;  340,926;  346,955
361,576;  322,049;  317,736;  323,245
361,654;  349,590;  342,736;  343,615
361,733;  299,180;  297,366;  297,305
361,811;  334,099;  329,065;  331,875
361,890;  295,620;  292,595;  293,595
361,968;  319,039;  313,706;  316,715
362,046;  337,750;  335,296;  335,795
362,125;  339,810;  337,435;  340,865
362,203;  319,560;  314,635;  316,745
362,282;  334,629;  328,676;  334,675
362,360;  325,479;  318,315;  323,125
362,438;  323,129;  313,565;  317,495
362,517;  361,280;  357,725;  357,035
362,595;  345,710;  340,956;  345,025
362,673;  339,310;  334,576;  338,035
362,752;  330,379;  326,366;  329,445
362,830;  344,099;  343,155;  338,795
362,908;  329,799;  322,885;  326,315
362,986;  336,810;  333,595;  334,645
363,065;  335,289;  326,405;  330,985
363,143;  362,650;  359,875;  363,525
363,221;  324,579;  313,755;  319,675
363,299;  315,859;  315,845;  315,595
363,378;  331,220;  327,546;  328,495
363,456;  309,949;  304,326;  305,295
363,534;  333,060;  323,996;  327,895
363,612;  334,780;  327,546;  330,285
363,690;  341,250;  337,885;  341,915
363,769;  358,220;  349,336;  354,965
363,847;  340,440;  332,326;  333,935
363,925;  308,970;  303,095;  306,775
364,003;  358,109;  350,866;  351,845
364,081;  347,659;  336,345;  339,765
364,159;  340,720;  331,836;  334,695
364,237;  352,620;  341,276;  343,025
364,315;  332,599;  318,866;  320,765
364,393;  367,710;  350,935;  355,465
364,471;  347,030;  328,185;  329,975
364,549;  357,400;  333,026;  334,495
364,627;  362,340;  323,095;  327,065
364,705;  367,440;  311,135;  310,945
364,783;  443,280;  323,496;  332,235
364,861; 1003,140;  331,396;  334,915
364,939; 3529,240;  314,086;  319,855
365,017;  812,580;  306,046;  310,735
365,095;  378,799;  322,116;  324,495
365,173;  382,579;  345,556;  349,605
365,251;  385,970;  341,535;  344,665
365,329;  531,909;  346,466;  345,195
365,407; 1142,969;  318,345;  321,385
365,485;  467,049;  344,826;  348,395
365,563;  365,329;  344,306;  346,815
365,641;  343,169;  331,896;  331,005
365,719;  345,940;  337,095;  336,965
365,796;  345,049;  334,926;  336,075
365,874;  359,979;  347,426;  349,165
365,952;  322,759;  309,516;  312,925
366,030;  350,530;  334,866;  333,525
366,108;  364,099;  326,345;  328,575
366,185;  621,899;  338,396;  343,695
366,263;  872,630;  334,646;  340,035
366,341;  381,299;  334,125;  339,925
366,419;  345,460;  331,535;  331,355
366,496;  352,889;  342,655;  345,225
366,574;  333,190;  325,826;  329,315
366,652;  352,549;  345,296;  349,635
366,730;  371,370;  365,475;  368,065
366,807;  337,310;  330,845;  334,945
366,885;  331,569;  321,135;  327,175
366,963;  335,079;  329,016;  331,635
367,040;  357,479;  345,815;  352,465
367,118;  331,840;  321,875;  325,205
367,196;  350,930;  341,896;  344,715
367,273;  341,250;  335,845;  338,245
367,351;  334,349;  328,155;  331,125
367,428;  364,379;  355,016;  356,915
367,506;  335,729;  329,225;  333,905
367,584;  365,500;  360,216;  363,085
367,661;  348,530;  341,785;  346,585
367,739;  336,629;  328,466;  334,835
367,816;  325,849;  320,345;  324,175
367,894;  346,270;  339,146;  345,755
367,971;  336,650;  329,885;  333,335
368,049;  358,109;  349,586;  353,435
368,126;  324,090;  314,625;  317,265
368,204;  354,490;  351,836;  352,775
368,281;  360,299;  353,225;  355,775
368,359;  352,819;  348,806;  354,965
368,436;  348,210;  342,385;  348,785
368,514;  354,229;  349,646;  351,035
368,591;  349,430;  343,486;  348,405
368,668;  351,659;  347,486;  351,455
368,746;  361,940;  358,556;  362,125
368,823;  346,940;  342,405;  345,515
368,901;  343,199;  339,046;  341,025
368,978;  363,900;  354,975;  361,925
369,055;  349,120;  343,826;  347,145
369,133;  368,319;  367,046;  368,725
369,210;  346,229;  339,206;  342,185
369,287;  370,079;  367,986;  371,205
369,365;  375,099;  368,896;  369,715
369,442;  353,190;  346,826;  351,135
369,519;  312,680;  306,396;  310,475
369,596;  376,990;  369,005;  372,695
369,674;  342,509;  336,526;  336,705
369,751;  369,129;  368,005;  369,405
369,828;  355,870;  350,366;  351,255
369,905;  359,430;  354,796;  358,705
369,983;  333,720;  329,826;  336,485
370,060;  340,359;  335,185;  336,165
370,137;  376,289;  371,595;  373,975
370,214;  344,099;  340,246;  340,845
370,291;  356,919;  347,845;  351,965
370,368;  354,020;  345,426;  349,675
370,446;  339,180;  335,716;  337,375
370,523;  337,020;  331,586;  338,615
370,600;  355,370;  350,706;  356,355
370,677;  350,849;  345,826;  349,525
370,754;  347,229;  341,706;  344,655
370,831;  349,329;  344,885;  347,665
370,908;  371,579;  368,556;  369,945
370,985;  332,349;  326,206;  327,885
371,062;  350,710;  346,635;  347,955
371,139;  363,650;  362,125;  364,815
371,216;  359,949;  357,496;  359,475
371,293;  357,500;  350,576;  350,305
371,370;  332,329;  328,806;  332,395
371,447;  358,560;  354,736;  355,835
371,524;  376,590;  374,685;  378,505
371,601;  377,530;  371,556;  374,285
371,678;  378,240;  374,306;  375,345
371,755;  352,400;  348,526;  348,275
371,832;  373,690;  374,526;  377,175
371,909;  347,009;  342,065;  344,605
371,986;  381,849;  376,505;  379,065
372,063;  351,620;  346,195;  348,745
372,140;  360,750;  354,056;  357,495
372,216;  363,750;  360,225;  360,935
372,293;  348,879;  341,945;  344,805
372,370;  375,780;  370,236;  372,635
372,447;  362,359;  361,646;  361,385
372,524;  353,849;  349,725;  352,115
372,601;  355,960;  353,236;  356,005
372,677;  342,370;  339,586;  339,035
372,754;  353,109;  347,516;  350,955
372,831;  358,259;  354,716;  356,955
372,908;  371,549;  368,496;  364,795
372,984;  354,840;  349,246;  356,035
373,061;  345,150;  342,046;  342,845
373,138;  357,919;  349,986;  354,465
373,215;  345,940;  345,155;  346,585
373,291;  353,909;  347,556;  353,415
373,368;  358,889;  353,516;  357,375
373,445;  353,840;  348,285;  348,395
373,521;  356,009;  349,216;  353,935
373,598;  346,560;  341,766;  343,845
373,675;  336,599;  332,646;  334,115
373,751;  349,539;  345,375;  354,195
373,828;  346,909;  341,076;  346,375
373,904;  393,629;  387,225;  391,935
373,981;  334,250;  332,516;  333,585
374,057;  358,180;  353,306;  355,945
374,134;  333,120;  331,706;  334,435
374,211;  354,379;  348,826;  351,835
374,287;  340,549;  338,565;  339,035
374,364;  368,620;  362,426;  365,335
374,440;  321,690;  319,035;  321,205
374,517;  366,430;  361,625;  366,995
374,593;  327,990;  326,896;  326,865
374,670;  345,740;  340,095;  342,905
374,746;  351,680;  346,915;  349,135
374,823;  370,859;  369,255;  368,775
374,899;  368,509;  366,836;  366,475
374,975;  344,849;  336,035;  341,495
375,052;  323,379;  319,776;  326,175
375,128;  328,530;  325,956;  331,675
375,205;  359,430;  353,665;  355,605
375,281;  339,039;  337,296;  336,395
375,357;  368,090;  361,026;  364,245
375,434;  338,599;  331,986;  338,045
375,510;  351,560;  347,755;  353,175
375,586;  352,099;  347,486;  349,845
375,663;  324,900;  321,926;  323,515
375,739;  358,359;  355,716;  358,675
375,815;  348,079;  346,366;  346,765
375,892;  348,579;  344,516;  348,555
375,968;  339,060;  331,605;  336,855
376,044;  339,270;  335,866;  339,405
376,120;  343,479;  332,535;  339,615
376,197;  352,150;  348,466;  352,185
376,273;  344,060;  340,516;  341,095
376,349;  386,099;  378,366;  379,125
376,425;  368,060;  362,935;  364,425
376,501;  351,259;  344,225;  347,555
376,578;  364,799;  362,885;  363,255
376,654;  384,579;  383,866;  382,945
376,730;  365,430;  360,266;  364,005
376,806;  376,650;  375,185;  376,845
376,882;  380,829;  377,176;  378,355
376,958;  379,289;  376,706;  373,325
377,034;  324,490;  319,695;  317,895
377,111;  372,120;  368,826;  369,285
377,187;  392,329;  390,845;  391,825
377,263;  391,500;  383,885;  384,725
377,339;  348,150;  341,445;  346,375
377,415;  365,329;  366,366;  365,685
377,491;  348,389;  342,885;  347,505
377,567;  364,789;  359,755;  360,685
377,643;  382,710;  380,076;  378,785
377,719;  372,579;  363,706;  367,845
377,795;  351,470;  345,725;  349,165
377,871;  372,280;  367,866;  370,355
377,947;  358,520;  348,236;  351,215
378,023;  349,009;  345,855;  349,075
378,099;  353,599;  349,035;  350,465
378,174;  372,829;  374,176;  374,825
378,250;  370,569;  363,105;  366,955
378,326;  372,710;  366,255;  370,045
378,402;  361,379;  357,685;  360,315
378,478;  363,120;  361,605;  365,295
378,554;  374,099;  370,396;  375,075
378,630;  370,129;  365,225;  365,285
378,706;  363,389;  358,076;  357,335
378,781;  397,240;  390,875;  394,875
378,857;  369,789;  363,185;  366,505
378,933;  365,419;  360,315;  365,855
379,009;  355,680;  351,426;  351,035
379,085;  395,530;  393,826;  391,725
379,160;  379,840;  377,246;  378,485
379,236;  379,490;  374,195;  376,655
379,312;  362,750;  359,915;  361,725
379,387;  355,840;  354,486;  355,105
379,463;  366,549;  359,836;  363,685
379,539;  375,460;  370,475;  373,395
379,615;  362,069;  359,056;  358,495
379,690;  401,490;  395,035;  398,755
379,766;  380,889;  373,276;  379,335
379,842;  394,720;  391,105;  391,375
379,917;  387,690;  380,935;  388,225
379,993;  373,440;  368,366;  373,385
380,068;  363,699;  359,236;  361,755
380,144;  386,299;  381,086;  383,405
380,220;  388,520;  382,086;  386,535
380,295;  357,740;  353,005;  355,035
380,371;  364,020;  359,935;  361,545
380,446;  383,229;  377,165;  381,125
380,522;  355,129;  348,766;  349,425
380,597;  364,460;  360,486;  359,965
380,673;  401,009;  390,456;  394,425
380,748;  360,930;  358,046;  358,445
380,824;  371,509;  367,676;  369,935
380,899;  393,340;  386,216;  388,425
380,975;  369,329;  365,475;  366,905
381,050;  353,650;  352,806;  352,825
381,126;  371,549;  370,526;  373,695
381,201;  403,979;  398,806;  402,495
381,277;  379,259;  373,435;  374,795
381,352;  391,169;  388,105;  390,855
381,427;  377,299;  372,586;  376,025
381,503;  385,220;  378,896;  379,385
381,578;  365,030;  360,605;  365,515
381,653;  374,139;  368,776;  372,375
381,729;  365,870;  361,535;  360,945
381,804;  372,699;  367,475;  368,805
381,879;  384,470;  383,306;  386,055
381,955;  361,889;  354,396;  356,545
382,030;  360,409;  356,556;  357,225
382,105;  377,299;  375,586;  372,555
382,181;  375,659;  367,466;  371,255
382,256;  380,109;  378,116;  374,765
382,331;  374,389;  367,216;  371,745
382,406;  355,970;  353,266;  357,745
382,482;  363,039;  361,315;  357,655
382,557;  365,840;  363,526;  366,745
382,632;  376,270;  370,595;  371,585
382,707;  365,150;  361,135;  365,615
382,782;  367,780;  361,516;  366,275
382,857;  361,840;  358,996;  361,035
382,933;  356,199;  351,776;  352,995
383,008;  348,849;  344,065;  345,165
383,083;  380,129;  376,866;  379,215
383,158;  385,250;  378,866;  381,615
383,233;  366,210;  362,385;  363,105
383,308;  367,090;  359,875;  362,675
383,383;  395,460;  389,445;  391,785
383,458;  365,579;  361,135;  360,475
383,533;  346,759;  342,456;  344,625
383,608;  392,609;  387,885;  390,385
383,683;  391,120;  385,046;  389,585
383,758;  385,440;  380,285;  380,925
383,833;  375,740;  370,296;  371,015
383,908;  347,430;  343,206;  342,165
383,983;  352,900;  346,296;  350,755
384,058;  362,180;  355,246;  357,655
384,133;  371,419;  368,185;  368,575
384,208;  381,139;  376,796;  379,565
384,283;  351,750;  348,736;  351,825
384,358;  388,139;  381,845;  387,485
384,433;  360,030;  357,496;  357,355
384,508;  375,919;  368,966;  373,895
384,583;  375,979;  373,725;  375,265
384,658;  375,879;  367,915;  371,275
384,732;  342,120;  339,456;  339,705
384,807;  369,840;  366,935;  369,005
384,882;  375,609;  371,246;  373,145
384,957;  374,909;  368,095;  371,985
385,032;  379,400;  375,426;  376,555
385,106;  376,240;  370,216;  371,515
385,181;  356,340;  351,385;  357,155
385,256;  368,000;  363,565;  366,745
385,331;  375,729;  371,935;  373,255
385,405;  387,009;  380,975;  381,445
385,480;  368,960;  365,695;  366,715
385,555;  405,220;  399,306;  400,405
385,630;  396,849;  390,956;  395,935
385,704;  378,509;  374,056;  377,105
385,779;  369,000;  364,405;  364,855
385,854;  372,349;  368,746;  369,975
385,928;  365,460;  363,016;  365,315
386,003;  405,389;  402,586;  405,115
386,078;  378,180;  372,466;  374,995
386,152;  405,319;  401,456;  401,815
386,227;  365,329;  357,646;  361,225
386,301;  381,139;  378,725;  380,385
386,376;  357,009;  348,695;  355,015
386,450;  380,569;  378,616;  381,145
386,525;  377,819;  373,556;  377,655
386,600;  390,159;  385,746;  385,925
386,674;  369,090;  364,076;  367,315
386,749;  377,819;  375,095;  381,315
386,823;  385,199;  377,435;  382,095
386,898;  388,449;  379,766;  380,535
386,972;  385,180;  380,966;  385,985
387,047;  374,799;  369,776;  374,355
387,121;  385,049;  379,695;  380,335
387,195;  361,280;  357,875;  359,895
387,270;  387,970;  385,625;  385,415
387,344;  407,979;  404,405;  407,055
387,419;  396,069;  385,665;  393,195
387,493;  381,569;  377,776;  379,825
387,567;  361,220;  355,005;  358,475
387,642;  409,340;  403,586;  405,945
387,716;  376,340;  369,565;  372,245
387,790;  373,549;  367,706;  371,225
387,865;  375,770;  372,806;  373,715
387,939;  407,949;  403,005;  404,415
388,013;  387,139;  384,806;  386,145
388,088;  375,669;  368,655;  370,085
388,162;  376,389;  370,135;  371,835
388,236;  376,579;  372,456;  375,275
388,310;  369,329;  361,966;  364,475
388,385;  404,849;  397,185;  400,845
388,459;  381,990;  379,996;  380,235
388,533;  366,729;  363,676;  362,565
388,607;  371,329;  366,776;  365,955
388,682;  380,889;  374,806;  375,745
388,756;  361,949;  355,035;  360,825
388,830;  393,729;  390,255;  394,075
388,904;  383,400;  378,276;  385,365
388,978;  374,539;  369,535;  370,165
389,052;  379,579;  375,396;  377,225
389,126;  377,650;  370,435;  376,195
389,200;  378,669;  372,665;  377,205
389,275;  373,620;  369,266;  367,695
389,349;  377,620;  374,695;  373,065
389,423;  372,099;  369,565;  369,375
389,497;  382,900;  380,966;  383,775
389,571;  374,180;  368,665;  370,175
389,645;  378,759;  376,806;  379,805
389,719;  375,970;  369,396;  372,955
389,793;  349,370;  346,576;  348,725
389,867;  403,770;  398,035;  402,955
389,941;  380,970;  375,375;  377,215
390,015;  369,810;  361,135;  364,515
390,089;  365,060;  360,426;  362,085
390,163;  376,169;  372,456;  375,935
390,237;  380,870;  375,435;  379,295
390,310;  387,069;  379,276;  382,155
390,384;  386,009;  376,546;  383,625
390,458;  408,609;  400,826;  403,825
390,532;  390,900;  383,496;  386,725
390,606;  373,340;  365,945;  369,265
390,680;  371,759;  366,466;  368,115
390,754;  369,819;  366,385;  368,915
390,827;  395,220;  388,276;  392,645
390,901;  395,210;  391,855;  396,215
390,975;  372,539;  368,905;  370,295
391,049;  368,079;  366,366;  364,315
391,123;  364,509;  362,685;  363,545
391,196;  369,729;  367,635;  367,855
391,270;  380,409;  378,426;  377,835
391,344;  364,479;  360,056;  359,585
391,418;  370,740;  372,975;  372,155
391,491;  364,539;  362,655;  363,995
391,565;  368,750;  362,065;  366,105
391,639;  400,569;  394,345;  397,875
391,712;  386,799;  385,815;  384,375
391,786;  386,990;  382,646;  386,785
391,860;  373,349;  369,385;  370,925
391,933;  375,440;  369,935;  371,115
392,007;  379,370;  371,355;  380,875
392,081;  402,949;  396,456;  399,955
392,154;  383,940;  377,845;  383,895
392,228;  398,520;  391,366;  394,685
392,301;  383,359;  376,266;  381,275
392,375;  392,030;  386,076;  389,995
392,448;  384,250;  379,516;  384,445
392,522;  376,840;  376,236;  379,965
392,595;  379,729;  370,105;  374,245
392,669;  378,870;  376,116;  379,675
392,742;  397,090;  390,975;  396,915
392,816;  401,859;  397,296;  400,205
392,889;  396,659;  392,746;  396,605
392,963;  412,799;  409,095;  409,745
393,036;  387,539;  385,345;  386,785
393,110;  395,520;  391,155;  393,885
393,183;  405,180;  400,836;  405,685
393,257;  424,680;  415,456;  417,745
393,330;  369,930;  365,845;  369,745
393,403;  394,229;  390,486;  395,585
393,477;  361,729;  355,845;  358,875
393,550;  393,270;  390,306;  395,545
393,623;  392,970;  388,396;  388,295
393,697;  409,810;  406,056;  406,835
393,770;  383,509;  376,556;  379,065
393,843;  406,699;  402,996;  406,915
393,917;  399,940;  394,216;  398,485
393,990;  414,060;  409,996;  410,125
394,063;  393,180;  386,855;  392,225
394,136;  393,409;  388,635;  391,675
394,210;  397,250;  393,336;  395,655
394,283;  409,210;  402,785;  407,175
394,356;  399,579;  399,165;  399,175
394,429;  398,919;  396,935;  398,825
394,502;  385,500;  382,016;  383,895
394,576;  416,259;  414,125;  414,715
394,649;  382,449;  378,776;  377,865
394,722;  405,530;  400,896;  403,785
394,795;  413,270;  408,306;  413,185
394,868;  386,849;  384,135;  385,985
394,941;  375,859;  376,435;  375,265
395,014;  420,440;  417,056;  420,205
395,088;  402,180;  398,956;  399,175
395,161;  400,270;  395,466;  398,685
395,234;  410,129;  409,236;  410,735
395,307;  404,030;  402,236;  405,525
395,380;  389,729;  384,736;  385,325
395,453;  439,740;  436,845;  437,285
395,526;  415,020;  408,385;  412,495
395,599;  435,479;  426,926;  430,645
395,672;  396,949;  394,586;  394,895
395,745;  419,180;  417,125;  421,075
395,818;  383,659;  376,306;  378,615
395,891;  386,740;  385,635;  387,695
395,964;  420,159;  415,896;  414,885
396,036;  391,900;  387,486;  384,175
396,109;  394,900;  392,076;  395,785
396,182;  401,509;  396,766;  399,545
396,255;  402,799;  399,225;  398,845
396,328;  413,440;  410,065;  411,075
396,401;  373,740;  370,746;  371,295
396,474;  383,009;  381,086;  381,505
396,547;  402,060;  397,046;  400,645
396,619;  394,720;  390,755;  390,525
396,692;  409,440;  404,866;  411,355
396,765;  374,039;  370,616;  372,985
396,838;  391,720;  388,225;  388,295
396,911;  373,699;  371,266;  373,155
396,983;  395,250;  392,496;  392,385
397,056;  374,979;  372,355;  374,095
397,129;  389,000;  387,796;  389,615
397,201;  392,579;  391,556;  389,605
397,274;  390,960;  385,366;  389,335
397,347;  370,549;  363,345;  363,665
397,420;  387,470;  384,605;  387,195
397,492;  389,599;  388,296;  388,685
397,565;  379,449;  375,915;  379,595
397,637;  375,710;  369,366;  372,085
397,710;  357,909;  351,586;  350,295
397,783;  415,020;  412,855;  414,805
397,855;  350,609;  345,345;  347,055
397,928;  372,690;  368,336;  371,095
398,000;  398,740;  395,866;  396,635
398,073;  387,780;  386,546;  384,745
398,146;  380,169;  376,706;  377,295
398,218;  396,210;  390,255;  393,135
398,291;  390,020;  385,806;  387,915
398,363;  384,129;  381,755;  384,505
398,436;  375,710;  369,855;  374,675
398,508;  385,909;  383,266;  385,345
398,581;  380,680;  378,206;  380,565
398,653;  377,909;  374,255;  373,825
398,726;  382,090;  378,535;  383,385
398,798;  387,000;  383,306;  387,885
398,870;  396,270;  391,116;  396,905
398,943;  369,039;  366,236;  369,775
399,015;  367,319;  365,676;  368,815
399,088;  390,470;  389,655;  388,435
399,160;  368,690;  368,076;  368,815
399,232;  355,449;  350,405;  352,095
399,305;  372,699;  368,435;  372,935
399,377;  382,159;  377,905;  377,535
399,449;  389,829;  386,246;  388,735
399,522;  429,310;  421,875;  424,965
399,594;  371,329;  364,576;  365,315
399,666;  386,780;  382,625;  385,235
399,738;  376,530;  373,336;  375,225
399,811;  378,199;  376,736;  377,025
399,883;  393,289;  386,105;  388,295
399,955;  395,690;  389,855;  389,195
400,027;  349,870;  345,945;  349,545
400,100;  408,579;  407,366;  409,275
400,172;  349,720;  348,296;  349,645
400,244;  381,549;  378,225;  381,195
400,316;  395,590;  393,016;  393,505
400,388;  393,090;  389,385;  393,005
400,460;  363,710;  359,306;  364,605
400,532;  352,060;  350,826;  351,835
400,605;  382,289;  377,736;  384,975
400,677;  402,690;  402,285;  404,675
400,749;  399,340;  395,685;  398,125
400,821;  390,340;  385,956;  388,105
400,893;  382,419;  379,445;  382,305
400,965;  394,639;  386,755;  392,785
401,037;  390,109;  387,565;  392,525
401,109;  374,759;  370,725;  373,835
401,181;  384,639;  380,716;  385,485

