pru
Integration time [ms]:   0,150
Averaging Nr. [scans]: 100
Smoothing Nr. [pixels]: 0
Data measured with spectrometer [name]: 7416147SP
Wave   ;Sample   ;Dark     ;Reference
[nm]   ;[counts] ;[counts] ;[counts] 

230,218;  290,438;  290,315;  293,845
230,311;  318,688;  319,885;  318,565
230,404;  308,807;  309,855;  312,875
230,497;  318,087;  317,385;  315,715
230,591;  334,078;  333,426;  335,355
230,684;  328,658;  326,486;  329,355
230,777;  313,807;  311,736;  314,765
230,870;  310,777;  313,326;  316,955
230,964;  307,717;  310,885;  314,745
231,057;  339,138;  342,496;  343,475
231,150;  331,608;  331,695;  332,715
231,243;  329,078;  330,635;  332,775
231,336;  331,978;  331,375;  331,335
231,430;  317,807;  316,496;  317,715
231,523;  325,078;  324,516;  326,785
231,616;  308,068;  305,445;  309,685
231,709;  345,108;  328,065;  330,025
231,802;  317,967;  300,945;  301,885
231,895;  314,747;  299,836;  300,315
231,988;  329,017;  315,655;  318,535
232,082;  312,688;  298,155;  302,425
232,175;  318,737;  302,155;  306,175
232,268;  317,147;  301,266;  305,345
232,361;  315,568;  304,806;  307,515
232,454;  335,987;  322,396;  323,025
232,547;  332,837;  318,716;  322,655
232,640;  306,337;  296,766;  294,035
232,733;  332,617;  314,116;  323,045
232,826;  309,427;  288,915;  295,035
232,919;  326,867;  313,826;  312,665
233,012;  306,027;  293,646;  292,775
233,105;  311,638;  294,766;  298,815
233,199;  316,797;  299,875;  304,045
233,292;  310,027;  293,475;  296,235
233,385;  277,728;  263,426;  262,225
233,478;  310,027;  293,885;  295,685
233,571;  337,027;  324,586;  327,675
233,664;  319,038;  305,996;  308,435
233,757;  295,267;  280,796;  281,395
233,850;  297,658;  282,255;  285,825
233,943;  305,487;  290,896;  292,195
234,035;  316,457;  300,576;  302,355
234,128;  295,628;  281,836;  283,945
234,221;  314,078;  297,665;  298,245
234,314;  323,758;  304,915;  311,975
234,407;  321,467;  302,935;  309,075
234,500;  299,777;  277,625;  281,875
234,593;  304,717;  287,095;  285,735
234,686;  308,358;  293,746;  293,765
234,779;  305,818;  291,266;  293,165
234,872;  297,337;  281,806;  281,565
234,965;  304,057;  292,806;  290,795
235,058;  290,378;  274,155;  276,215
235,150;  305,318;  285,776;  290,805
235,243;  297,277;  282,736;  284,425
235,336;  316,108;  300,695;  304,545
235,429;  288,378;  273,646;  272,515
235,522;  342,217;  330,996;  335,445
235,615;  277,408;  262,276;  265,145
235,707;  295,517;  282,415;  282,335
235,800;  302,948;  289,815;  290,515
235,893;  305,698;  289,956;  292,955
235,986;  315,217;  298,266;  299,325
236,079;  299,198;  286,586;  291,125
236,171;  286,057;  270,725;  271,865
236,264;  324,578;  312,635;  313,275
236,357;  304,688;  290,986;  293,865
236,450;  322,168;  315,225;  317,215
236,542;  287,128;  267,065;  272,575
236,635;  328,848;  313,546;  316,385
236,728;  299,638;  285,516;  288,115
236,821;  296,487;  280,165;  283,715
236,913;  288,908;  277,896;  276,315
237,006;  286,628;  271,605;  275,435
237,099;  298,948;  283,896;  285,575
237,191;  316,487;  298,796;  300,225
237,284;  287,688;  267,896;  272,995
237,377;  310,858;  294,725;  297,495
237,470;  298,867;  285,415;  287,875
237,562;  291,647;  276,866;  275,785
237,655;  340,207;  320,945;  324,565
237,747;  310,087;  292,695;  295,845
237,840;  327,698;  313,086;  314,435
237,933;  313,758;  300,445;  301,555
238,025;  317,188;  301,415;  301,595
238,118;  298,858;  282,456;  287,755
238,211;  289,228;  268,155;  272,375
238,303;  286,767;  272,296;  273,415
238,396;  283,017;  268,065;  271,945
238,488;  305,497;  292,625;  291,075
238,581;  303,337;  287,855;  289,445
238,673;  302,987;  285,766;  286,865
238,766;  298,337;  282,635;  283,185
238,859;  289,328;  273,586;  276,105
238,951;  294,168;  281,095;  282,835
239,044;  291,478;  276,496;  279,525
239,136;  289,427;  269,035;  271,705
239,229;  298,628;  280,665;  283,435
239,321;  289,828;  271,255;  276,105
239,414;  306,438;  289,875;  292,345
239,506;  298,487;  284,625;  290,655
239,599;  333,147;  316,315;  315,935
239,691;  302,878;  287,945;  287,755
239,784;  319,348;  301,926;  304,175
239,876;  310,538;  295,005;  294,715
239,969;  303,918;  284,426;  288,635
240,061;  287,247;  269,505;  272,655
240,153;  295,747;  276,776;  278,405
240,246;  300,698;  287,635;  287,925
240,338;  327,487;  315,285;  314,405
240,431;  283,188;  268,896;  270,455
240,523;  287,918;  269,315;  270,665
240,615;  313,658;  299,086;  301,495
240,708;  326,378;  309,945;  312,145
240,800;  304,047;  286,956;  289,175
240,893;  290,038;  272,216;  274,965
240,985;  305,128;  286,116;  289,995
241,077;  285,587;  269,866;  271,905
241,170;  318,367;  300,355;  300,805
241,262;  306,967;  293,695;  290,825
241,354;  270,638;  252,305;  253,985
241,447;  300,217;  281,326;  283,905
241,539;  286,967;  266,746;  270,745
241,631;  331,068;  314,366;  317,275
241,724;  279,908;  259,135;  260,655
241,816;  298,228;  279,385;  281,545
241,908;  293,538;  275,056;  280,445
242,000;  298,487;  277,625;  279,505
242,093;  296,547;  277,725;  280,745
242,185;  295,078;  277,736;  277,535
242,277;  292,228;  274,695;  277,115
242,369;  301,207;  282,146;  286,335
242,462;  292,068;  274,405;  274,215
242,554;  296,668;  277,146;  281,105
242,646;  299,737;  283,146;  286,575
242,738;  321,418;  303,255;  307,195
242,830;  278,638;  259,026;  260,415
242,923;  313,388;  297,035;  299,015
243,015;  285,517;  268,655;  266,675
243,107;  285,888;  267,676;  271,255
243,199;  295,138;  276,345;  278,365
243,291;  288,728;  272,125;  276,215
243,383;  267,457;  254,826;  256,465
243,476;  282,538;  269,435;  268,005
243,568;  298,087;  280,915;  284,885
243,660;  291,818;  273,385;  279,575
243,752;  298,897;  279,796;  287,275
243,844;  318,467;  300,766;  302,705
243,936;  305,198;  291,956;  293,555
244,028;  320,267;  304,796;  307,475
244,120;  265,707;  254,346;  255,525
244,212;  305,788;  293,826;  293,755
244,305;  280,247;  268,496;  267,935
244,397;  303,688;  289,165;  291,675
244,489;  318,538;  304,276;  307,925
244,581;  313,467;  299,255;  300,795
244,673;  296,918;  281,806;  283,225
244,765;  301,517;  286,035;  290,565
244,857;  302,158;  284,986;  287,335
244,949;  300,918;  283,956;  284,945
245,041;  268,747;  250,865;  255,005
245,133;  310,717;  293,695;  296,625
245,225;  295,117;  277,915;  280,695
245,317;  301,858;  289,456;  289,025
245,409;  282,198;  263,755;  269,375
245,501;  302,008;  288,496;  293,045
245,593;  305,348;  286,255;  290,055
245,685;  301,508;  285,405;  288,735
245,776;  299,207;  285,945;  287,235
245,868;  284,427;  271,276;  272,565
245,960;  276,348;  265,875;  263,405
246,052;  318,978;  310,766;  310,445
246,144;  308,848;  294,165;  294,205
246,236;  294,098;  283,576;  283,565
246,328;  302,307;  291,345;  293,965
246,420;  289,967;  279,746;  280,855
246,512;  321,878;  308,236;  310,455
246,604;  296,147;  282,526;  286,825
246,695;  285,797;  273,345;  272,135
246,787;  310,128;  293,526;  301,145
246,879;  307,797;  292,716;  297,145
246,971;  306,568;  299,276;  300,965
247,063;  293,578;  273,255;  278,605
247,155;  311,427;  294,516;  297,195
247,246;  298,448;  283,266;  283,715
247,338;  304,658;  288,116;  294,265
247,430;  314,307;  299,945;  303,475
247,522;  309,777;  297,546;  300,555
247,613;  312,598;  296,586;  299,675
247,705;  305,818;  286,896;  288,445
247,797;  326,408;  305,776;  307,475
247,889;  319,888;  294,706;  295,475
247,980;  321,388;  285,676;  291,995
248,072;  330,517;  282,845;  285,895
248,164;  352,828;  293,216;  298,385
248,256;  302,677;  271,366;  274,105
248,347;  326,358;  309,785;  311,065
248,439;  296,307;  283,165;  282,675
248,531;  320,427;  303,885;  304,835
248,622;  320,948;  307,206;  308,325
248,714;  294,358;  276,945;  278,365
248,806;  309,598;  293,655;  298,015
248,897;  305,957;  291,535;  292,985
248,989;  279,557;  263,956;  263,855
249,081;  296,737;  283,355;  284,905
249,172;  310,758;  289,926;  295,135
249,264;  290,608;  272,076;  273,435
249,356;  287,328;  269,326;  273,745
249,447;  300,728;  282,176;  284,525
249,539;  296,737;  283,086;  284,645
249,630;  306,207;  289,875;  288,495
249,722;  330,277;  313,276;  315,395
249,813;  299,258;  280,496;  284,125
249,905;  308,698;  289,426;  293,665
249,997;  297,978;  281,445;  280,615
250,088;  303,777;  282,255;  288,985
250,180;  303,228;  283,695;  284,575
250,271;  300,117;  281,195;  280,335
250,363;  341,508;  319,105;  320,755
250,454;  293,888;  273,035;  275,615
250,546;  309,658;  285,926;  289,415
250,637;  282,098;  264,445;  261,845
250,729;  293,337;  266,505;  269,555
250,820;  314,318;  289,915;  292,965
250,912;  286,837;  262,355;  267,085
251,003;  307,247;  278,396;  280,475
251,095;  304,707;  282,086;  284,555
251,186;  295,647;  271,415;  274,775
251,277;  301,318;  271,986;  275,265
251,369;  301,858;  275,975;  275,105
251,460;  297,318;  271,456;  273,815
251,552;  312,658;  278,475;  279,655
251,643;  307,448;  268,796;  267,375
251,735;  305,078;  265,246;  267,375
251,826;  300,707;  258,016;  263,245
251,917;  329,078;  278,035;  279,115
252,009;  328,207;  273,396;  275,605
252,100;  331,467;  281,426;  283,345
252,191;  354,818;  289,996;  292,015
252,283;  344,307;  265,095;  267,705
252,374;  371,997;  278,296;  278,375
252,465;  396,688;  295,405;  298,605
252,557;  395,267;  283,576;  286,365
252,648;  392,497;  265,146;  268,635
252,739;  420,617;  280,516;  282,125
252,831;  425,027;  270,836;  280,355
252,922;  458,568;  282,296;  280,045
253,013;  510,538;  273,956;  284,285
253,104;  572,157;  270,076;  270,335
253,196;  687,977;  271,366;  271,175
253,287;  854,398;  281,836;  277,135
253,378; 1249,277;  276,276;  277,975
253,469; 3874,397;  272,385;  276,445
253,561;22027,068;  273,496;  278,855
253,652;43682,898;  282,266;  280,015
253,743; 6224,147;  276,216;  280,985
253,834;  627,297;  259,146;  265,875
253,926;  501,737;  262,605;  267,485
254,017;  479,658;  284,236;  290,235
254,108;  450,867;  291,836;  290,565
254,199;  429,967;  285,326;  291,185
254,290;  432,587;  312,725;  313,865
254,381;  413,237;  287,076;  291,155
254,472;  415,557;  291,935;  300,495
254,564;  414,108;  312,766;  307,565
254,655;  393,647;  304,755;  308,105
254,746;  348,217;  264,896;  264,025
254,837;  379,247;  293,105;  298,435
254,928;  359,438;  266,836;  271,975
255,019;  364,807;  283,505;  286,805
255,110;  370,318;  300,165;  301,665
255,201;  350,138;  281,155;  287,655
255,292;  384,008;  312,706;  316,275
255,383;  350,608;  275,785;  275,725
255,474;  342,487;  273,306;  273,095
255,566;  350,578;  283,926;  286,645
255,657;  346,948;  298,556;  302,445
255,748;  315,418;  271,415;  278,125
255,839;  322,418;  280,695;  282,485
255,930;  327,408;  287,866;  289,735
256,021;  334,997;  298,845;  298,115
256,112;  318,057;  278,456;  278,735
256,203;  342,978;  311,866;  313,365
256,294;  327,878;  293,496;  299,575
256,384;  312,497;  270,565;  275,715
256,475;  317,918;  290,996;  294,595
256,566;  309,348;  281,246;  287,825
256,657;  299,978;  278,945;  278,915
256,748;  301,168;  281,285;  284,675
256,839;  294,487;  274,426;  273,555
256,930;  303,138;  279,165;  283,055
257,021;  324,438;  304,155;  306,465
257,112;  326,997;  304,926;  309,235
257,203;  273,228;  258,445;  259,825
257,294;  274,047;  254,465;  262,175
257,385;  305,658;  288,526;  294,205
257,475;  294,318;  279,135;  278,545
257,566;  307,258;  287,586;  292,255
257,657;  289,467;  269,595;  270,025
257,748;  289,578;  275,935;  276,095
257,839;  298,747;  287,915;  286,025
257,930;  302,848;  285,736;  290,395
258,020;  281,788;  269,716;  271,535
258,111;  280,427;  262,225;  263,255
258,202;  302,837;  288,326;  289,935
258,293;  293,788;  284,655;  285,305
258,384;  316,668;  305,595;  307,665
258,474;  299,867;  288,676;  291,995
258,565;  283,397;  271,635;  273,435
258,656;  303,047;  292,966;  295,145
258,747;  283,777;  271,475;  275,425
258,837;  285,568;  274,246;  273,695
258,928;  289,747;  275,785;  278,605
259,019;  282,677;  268,415;  270,595
259,109;  282,978;  269,685;  269,425
259,200;  297,017;  286,105;  289,815
259,291;  279,897;  269,975;  271,655
259,381;  303,448;  293,026;  295,635
259,472;  303,698;  295,796;  296,545
259,563;  314,177;  303,065;  305,845
259,653;  291,098;  278,296;  281,385
259,744;  278,427;  268,826;  267,735
259,835;  311,517;  300,975;  302,815
259,925;  284,848;  271,505;  277,075
260,016;  295,878;  286,746;  287,585
260,107;  271,247;  258,035;  264,715
260,197;  292,677;  283,975;  286,325
260,288;  287,788;  274,565;  279,155
260,378;  279,247;  267,195;  271,275
260,469;  299,517;  285,915;  288,765
260,560;  274,198;  266,146;  269,495
260,650;  276,728;  271,736;  275,665
260,741;  287,818;  276,366;  279,035
260,831;  284,658;  272,855;  275,905
260,922;  276,307;  266,206;  269,545
261,012;  280,087;  277,665;  278,255
261,103;  307,397;  301,785;  302,875
261,193;  311,217;  302,086;  303,915
261,284;  277,047;  271,806;  273,005
261,374;  308,858;  296,385;  303,855
261,465;  295,688;  287,755;  289,435
261,555;  287,408;  282,255;  280,715
261,646;  298,538;  292,475;  294,375
261,736;  292,858;  287,435;  290,535
261,827;  289,647;  283,716;  284,935
261,917;  319,098;  311,736;  311,595
262,007;  296,578;  283,986;  288,075
262,098;  295,717;  289,445;  287,725
262,188;  336,677;  326,655;  333,475
262,279;  305,057;  300,185;  299,795
262,369;  294,448;  286,285;  289,225
262,459;  294,707;  288,246;  290,365
262,550;  305,878;  303,266;  301,565
262,640;  281,568;  273,005;  276,555
262,731;  304,147;  300,935;  299,335
262,821;  316,247;  310,535;  312,255
262,911;  305,547;  297,875;  298,285
263,002;  295,837;  289,625;  290,825
263,092;  311,087;  303,956;  306,295
263,182;  288,158;  284,806;  285,755
263,273;  290,828;  285,426;  289,395
263,363;  303,628;  300,746;  299,385
263,453;  273,297;  267,375;  268,605
263,543;  293,487;  289,815;  289,615
263,634;  271,728;  266,516;  266,365
263,724;  302,017;  292,586;  293,065
263,814;  313,027;  308,706;  308,885
263,904;  288,487;  281,966;  285,905
263,995;  327,487;  322,276;  322,325
264,085;  300,418;  295,855;  294,575
264,175;  296,747;  296,706;  296,385
264,265;  324,568;  321,105;  321,865
264,356;  280,797;  270,466;  274,385
264,446;  312,318;  308,996;  307,575
264,536;  298,568;  294,026;  297,515
264,626;  317,628;  318,486;  320,175
264,716;  307,608;  298,435;  303,275
264,806;  314,438;  308,776;  310,415
264,897;  264,788;  258,135;  258,615
264,987;  309,237;  303,535;  304,475
265,077;  315,967;  287,046;  292,545
265,167;  374,918;  310,216;  311,575
265,257;  332,237;  290,445;  290,535
265,347;  331,848;  294,336;  295,795
265,437;  324,427;  296,176;  300,635
265,527;  315,908;  293,155;  294,765
265,617;  289,348;  279,875;  285,145
265,708;  321,228;  314,216;  314,825
265,798;  312,587;  305,415;  307,055
265,888;  306,027;  300,716;  305,545
265,978;  297,837;  294,496;  295,825
266,068;  316,797;  310,155;  315,855
266,158;  297,948;  294,005;  297,205
266,248;  278,467;  274,016;  276,865
266,338;  318,408;  313,035;  314,815
266,428;  307,797;  300,635;  302,655
266,518;  318,707;  311,405;  315,615
266,608;  306,797;  299,725;  294,215
266,698;  277,358;  273,586;  276,245
266,788;  278,897;  274,456;  277,745
266,878;  332,987;  325,776;  330,865
266,968;  312,158;  306,725;  309,425
267,058;  299,478;  297,375;  302,895
267,147;  308,818;  301,845;  302,905
267,237;  297,828;  291,815;  295,765
267,327;  292,427;  286,755;  287,895
267,417;  305,158;  301,225;  303,385
267,507;  299,138;  292,176;  294,215
267,597;  287,228;  282,026;  283,655
267,687;  291,788;  285,165;  287,755
267,777;  290,328;  283,986;  284,615
267,867;  313,228;  312,125;  312,585
267,956;  304,978;  302,466;  304,005
268,046;  313,897;  305,466;  310,865
268,136;  301,448;  296,875;  298,905
268,226;  281,978;  274,885;  274,965
268,316;  287,658;  280,766;  280,845
268,406;  293,038;  289,516;  287,595
268,495;  290,047;  284,415;  287,935
268,585;  312,138;  306,716;  309,605
268,675;  286,628;  284,336;  285,535
268,765;  303,557;  296,355;  300,115
268,854;  289,918;  285,935;  286,715
268,944;  296,047;  291,646;  293,805
269,034;  290,228;  283,986;  289,715
269,124;  291,957;  287,216;  290,705
269,213;  290,617;  286,336;  285,525
269,303;  290,638;  290,466;  288,585
269,393;  303,328;  299,845;  298,345
269,483;  302,158;  300,966;  302,735
269,572;  285,427;  282,875;  284,665
269,662;  284,777;  276,105;  283,315
269,752;  317,237;  312,736;  315,705
269,841;  271,927;  266,046;  269,455
269,931;  286,198;  281,586;  283,075
270,021;  305,777;  300,766;  304,675
270,110;  289,527;  285,695;  288,925
270,200;  296,487;  291,665;  299,445
270,289;  285,008;  280,785;  281,105
270,379;  305,758;  301,466;  302,775
270,469;  294,777;  290,556;  289,955
270,558;  305,108;  303,655;  302,185
270,648;  288,818;  282,785;  284,885
270,737;  295,138;  288,526;  291,525
270,827;  313,747;  310,185;  313,455
270,916;  291,568;  286,935;  289,915
271,006;  296,538;  293,475;  292,885
271,096;  320,367;  317,005;  317,215
271,185;  290,837;  289,896;  289,145
271,275;  305,878;  300,706;  303,575
271,364;  286,217;  281,535;  285,725
271,454;  315,688;  308,255;  315,275
271,543;  301,538;  296,935;  297,745
271,633;  297,078;  293,926;  292,835
271,722;  296,128;  292,255;  296,455
271,812;  294,668;  286,296;  289,275
271,901;  297,728;  292,326;  293,765
271,990;  296,008;  291,836;  290,915
272,080;  296,527;  290,635;  294,915
272,169;  303,858;  301,905;  302,555
272,259;  295,737;  293,225;  292,695
272,348;  307,978;  305,796;  308,535
272,438;  297,777;  296,935;  293,635
272,527;  307,568;  303,996;  304,365
272,616;  306,408;  301,866;  305,295
272,706;  329,448;  320,935;  323,195
272,795;  317,487;  314,076;  315,755
272,884;  299,978;  297,076;  299,515
272,974;  321,168;  317,975;  319,965
273,063;  344,568;  338,206;  337,765
273,152;  308,318;  310,306;  307,735
273,242;  327,807;  320,276;  324,915
273,331;  321,918;  319,315;  322,835
273,420;  309,818;  301,105;  310,255
273,510;  311,867;  307,355;  308,155
273,599;  308,788;  303,255;  306,195
273,688;  303,467;  302,605;  301,885
273,778;  287,897;  285,065;  287,095
273,867;  323,158;  320,266;  317,015
273,956;  304,408;  303,725;  303,805
274,045;  278,807;  273,966;  275,965
274,135;  307,217;  303,905;  305,375
274,224;  295,497;  286,516;  290,045
274,313;  309,797;  305,586;  307,745
274,402;  288,328;  284,796;  287,085
274,491;  315,837;  310,975;  312,995
274,581;  305,517;  301,415;  302,765
274,670;  294,217;  293,146;  294,385
274,759;  302,707;  299,405;  300,435
274,848;  281,297;  276,655;  279,925
274,937;  291,547;  289,945;  287,635
275,026;  286,668;  285,616;  287,835
275,116;  323,188;  316,415;  315,805
275,205;  294,348;  266,926;  271,135
275,294;  329,457;  302,315;  304,335
275,383;  303,767;  299,905;  297,985
275,472;  293,688;  290,005;  290,825
275,561;  292,177;  290,505;  290,285
275,650;  312,237;  306,046;  306,435
275,739;  299,478;  294,776;  297,985
275,828;  280,897;  274,635;  277,965
275,917;  314,168;  312,065;  306,825
276,006;  302,957;  295,426;  296,835
276,095;  298,848;  294,526;  298,665
276,184;  310,438;  309,556;  307,945
276,273;  304,997;  303,105;  304,505
276,362;  283,438;  275,896;  278,535
276,451;  292,168;  291,306;  291,915
276,540;  295,728;  295,896;  296,105
276,629;  293,997;  292,576;  293,225
276,718;  275,098;  270,695;  274,545
276,807;  273,207;  271,625;  274,825
276,896;  287,098;  280,526;  284,495
276,985;  287,587;  283,616;  289,365
277,074;  302,318;  299,105;  300,525
277,163;  300,128;  294,746;  299,085
277,252;  280,198;  279,646;  276,465
277,341;  291,147;  281,236;  289,265
277,430;  280,987;  276,845;  279,355
277,519;  304,128;  298,956;  301,695
277,608;  269,938;  266,546;  267,775
277,696;  272,337;  266,975;  269,445
277,785;  284,267;  284,095;  283,485
277,874;  302,777;  299,605;  296,795
277,963;  290,848;  288,155;  289,995
278,052;  266,598;  264,776;  265,525
278,141;  291,237;  288,415;  290,745
278,229;  293,788;  290,146;  291,935
278,318;  272,318;  268,236;  271,495
278,407;  290,517;  285,576;  285,935
278,496;  290,057;  289,915;  291,965
278,585;  303,848;  300,486;  302,275
278,673;  266,057;  263,836;  266,715
278,762;  272,207;  266,176;  270,485
278,851;  292,047;  285,496;  286,035
278,940;  308,258;  303,685;  303,305
279,028;  299,397;  296,306;  299,585
279,117;  290,497;  282,725;  286,655
279,206;  282,438;  279,475;  284,105
279,294;  283,957;  284,396;  286,665
279,383;  292,848;  286,646;  287,335
279,472;  299,117;  298,095;  298,295
279,561;  289,378;  283,355;  284,975
279,649;  310,438;  308,535;  308,935
279,738;  259,427;  255,566;  255,215
279,827;  311,807;  306,785;  308,805
279,915;  280,878;  275,285;  276,335
280,004;  291,878;  286,565;  288,905
280,092;  307,267;  305,236;  306,635
280,181;  287,348;  280,516;  282,605
280,270;  296,587;  277,866;  281,595
280,358;  309,247;  291,366;  288,915
280,447;  271,277;  261,415;  264,455
280,535;  285,818;  276,016;  275,945
280,624;  282,668;  274,185;  276,805
280,713;  289,198;  277,146;  283,385
280,801;  302,247;  293,116;  293,805
280,890;  295,747;  289,716;  295,475
280,978;  283,117;  280,755;  281,945
281,067;  258,057;  250,676;  255,865
281,155;  283,807;  274,855;  275,705
281,244;  323,728;  313,595;  316,445
281,332;  298,897;  290,845;  293,825
281,421;  278,967;  271,605;  273,675
281,509;  287,587;  284,646;  282,415
281,598;  268,858;  262,435;  263,765
281,686;  292,277;  290,776;  288,945
281,775;  294,438;  285,516;  290,815
281,863;  284,408;  278,016;  279,225
281,951;  279,858;  267,665;  270,735
282,040;  312,628;  300,315;  301,115
282,128;  305,177;  288,375;  294,235
282,217;  275,598;  265,926;  266,075
282,305;  304,008;  294,796;  294,045
282,393;  290,318;  286,505;  284,595
282,482;  292,078;  279,535;  283,255
282,570;  278,908;  266,945;  270,215
282,658;  289,967;  276,116;  277,715
282,747;  279,997;  265,026;  267,905
282,835;  315,307;  306,076;  309,035
282,923;  272,108;  264,655;  267,805
283,012;  296,277;  291,366;  296,345
283,100;  277,068;  269,185;  274,675
283,188;  265,737;  261,125;  262,525
283,277;  290,008;  284,336;  284,745
283,365;  276,427;  271,676;  278,375
283,453;  270,367;  264,755;  270,455
283,542;  294,328;  290,896;  293,765
283,630;  281,598;  276,195;  278,595
283,718;  274,897;  271,195;  274,365
283,806;  246,637;  241,706;  247,485
283,894;  279,188;  274,336;  274,395
283,983;  286,797;  282,165;  282,605
284,071;  291,098;  285,285;  291,495
284,159;  312,188;  309,125;  314,805
284,247;  295,967;  287,466;  288,555
284,335;  291,728;  286,935;  287,485
284,424;  292,888;  283,915;  288,465
284,512;  289,307;  283,475;  286,175
284,600;  282,478;  279,415;  280,145
284,688;  316,848;  312,815;  317,115
284,776;  294,147;  286,815;  287,745
284,864;  309,608;  302,125;  308,655
284,952;  291,888;  289,625;  289,025
285,041;  298,927;  298,255;  298,145
285,129;  308,158;  299,435;  302,445
285,217;  306,677;  300,056;  303,885
285,305;  319,668;  318,676;  319,885
285,393;  282,277;  275,776;  278,695
285,481;  299,448;  296,665;  298,405
285,569;  288,918;  282,966;  285,145
285,657;  300,017;  295,165;  296,255
285,745;  294,598;  292,655;  293,125
285,833;  294,557;  289,505;  293,165
285,921;  303,987;  298,116;  300,945
286,009;  303,408;  301,105;  303,655
286,097;  299,527;  298,236;  301,315
286,185;  287,297;  284,405;  284,795
286,273;  284,057;  283,415;  284,655
286,361;  313,408;  307,915;  311,825
286,449;  299,188;  296,195;  294,565
286,537;  305,897;  304,105;  302,085
286,625;  295,487;  291,185;  293,415
286,713;  283,427;  275,806;  280,315
286,801;  310,378;  312,076;  307,795
286,889;  320,647;  319,435;  320,055
286,976;  291,228;  287,905;  291,205
287,064;  310,957;  307,635;  311,875
287,152;  308,938;  303,576;  305,585
287,240;  310,848;  309,185;  308,845
287,328;  288,228;  287,685;  281,755
287,416;  295,638;  290,975;  292,385
287,504;  299,517;  294,435;  298,285
287,591;  302,267;  298,176;  300,225
287,679;  286,237;  286,095;  286,145
287,767;  302,688;  298,206;  296,985
287,855;  309,578;  303,736;  307,515
287,943;  309,858;  306,716;  309,435
288,030;  294,098;  293,456;  291,795
288,118;  325,098;  318,255;  318,995
288,206;  279,397;  274,956;  275,705
288,294;  306,747;  301,986;  304,135
288,382;  308,258;  300,776;  303,615
288,469;  307,388;  304,396;  308,895
288,557;  298,668;  294,095;  292,615
288,645;  325,608;  323,396;  323,315
288,732;  280,508;  278,915;  279,235
288,820;  308,147;  304,576;  306,785
288,908;  307,508;  304,826;  303,915
288,995;  312,108;  310,945;  310,305
289,083;  298,117;  293,026;  292,935
289,171;  330,888;  320,165;  325,565
289,258;  370,677;  322,176;  324,305
289,346;  434,707;  326,266;  329,365
289,434;  316,858;  303,435;  306,185
289,521;  290,307;  280,415;  286,295
289,609;  323,587;  320,426;  325,405
289,697;  316,677;  312,336;  315,125
289,784;  299,438;  295,445;  295,775
289,872;  311,608;  306,905;  313,015
289,959;  287,478;  282,375;  283,415
290,047;  299,128;  296,546;  300,865
290,134;  278,047;  272,665;  273,815
290,222;  313,158;  308,915;  308,665
290,310;  309,228;  304,905;  307,145
290,397;  333,017;  328,505;  332,835
290,485;  293,888;  290,815;  293,005
290,572;  315,337;  313,225;  314,645
290,660;  310,228;  306,385;  306,205
290,747;  293,267;  295,165;  292,775
290,835;  300,807;  299,016;  302,505
290,922;  306,547;  304,016;  305,515
291,009;  301,318;  297,676;  301,715
291,097;  300,047;  297,926;  300,755
291,184;  331,938;  332,716;  338,585
291,272;  288,737;  282,966;  288,375
291,359;  288,038;  283,915;  289,305
291,447;  307,297;  303,086;  304,735
291,534;  324,948;  327,326;  323,005
291,621;  303,608;  302,845;  301,105
291,709;  288,598;  285,716;  283,705
291,796;  318,547;  320,146;  316,555
291,884;  296,688;  291,466;  296,115
291,971;  320,098;  315,065;  320,295
292,058;  291,147;  288,725;  288,985
292,146;  298,767;  293,746;  297,955
292,233;  289,848;  285,426;  284,765
292,320;  292,938;  294,306;  297,685
292,408;  312,978;  309,086;  308,565
292,495;  304,438;  290,565;  293,085
292,582;  291,737;  286,845;  287,375
292,669;  286,848;  281,415;  286,055
292,757;  284,418;  282,176;  283,865
292,844;  312,867;  312,935;  313,175
292,931;  280,797;  275,176;  277,485
293,018;  295,487;  291,516;  289,915
293,106;  303,297;  299,966;  303,035
293,193;  271,188;  272,415;  274,385
293,280;  305,438;  297,255;  303,635
293,367;  298,927;  296,956;  295,215
293,455;  298,017;  293,185;  294,155
293,542;  281,217;  275,695;  281,445
293,629;  279,467;  279,035;  281,855
293,716;  309,747;  305,646;  311,195
293,803;  291,647;  287,105;  287,695
293,890;  313,888;  310,336;  312,555
293,978;  292,427;  284,105;  290,755
294,065;  287,848;  286,725;  284,345
294,152;  305,598;  302,385;  304,355
294,239;  275,277;  275,646;  274,625
294,326;  288,638;  286,746;  290,635
294,413;  281,797;  278,046;  278,465
294,500;  294,647;  292,586;  295,255
294,587;  286,057;  283,915;  287,195
294,674;  307,987;  305,875;  306,925
294,761;  291,438;  288,896;  287,945
294,848;  291,078;  286,866;  294,115
294,935;  293,897;  290,746;  290,555
295,022;  274,677;  272,396;  274,105
295,109;  264,938;  258,466;  262,665
295,196;  293,258;  291,405;  295,265
295,283;  280,938;  281,176;  278,745
295,370;  311,277;  308,975;  312,155
295,457;  291,788;  289,986;  290,435
295,544;  288,707;  285,105;  287,985
295,631;  295,897;  290,165;  295,805
295,718;  274,438;  272,676;  274,015
295,805;  300,628;  296,225;  296,685
295,892;  305,047;  300,005;  304,445
295,979;  298,467;  291,266;  292,755
296,066;  302,337;  293,996;  296,145
296,153;  304,318;  296,026;  296,355
296,240;  305,717;  299,206;  300,535
296,327;  297,527;  285,206;  285,615
296,413;  321,198;  301,285;  305,075
296,500;  338,848;  302,755;  305,145
296,587;  517,438;  288,616;  286,065
296,674; 1654,917;  294,396;  297,335
296,761;  800,227;  300,095;  298,245
296,848;  305,878;  281,956;  285,815
296,934;  301,348;  290,966;  295,265
297,021;  295,168;  292,565;  292,975
297,108;  283,688;  276,366;  280,895
297,195;  296,848;  291,466;  294,705
297,282;  292,628;  286,535;  286,195
297,368;  311,658;  310,026;  305,975
297,455;  288,638;  279,155;  283,145
297,542;  315,628;  311,375;  313,235
297,629;  302,438;  299,016;  300,205
297,715;  307,788;  308,285;  310,385
297,802;  304,117;  300,466;  303,285
297,889;  316,957;  311,716;  313,025
297,975;  326,138;  322,836;  323,685
298,062;  318,138;  310,505;  312,995
298,149;  277,478;  273,505;  274,905
298,235;  297,318;  291,135;  294,075
298,322;  297,448;  294,806;  292,785
298,409;  312,758;  311,195;  312,715
298,495;  287,158;  285,435;  283,435
298,582;  310,288;  307,516;  308,065
298,669;  298,247;  290,526;  294,245
298,755;  301,247;  299,065;  302,235
298,842;  307,337;  304,755;  309,095
298,928;  305,767;  303,855;  304,595
299,015;  295,457;  294,896;  296,705
299,102;  323,128;  318,986;  320,565
299,188;  318,367;  315,956;  316,045
299,275;  311,797;  309,926;  309,365
299,361;  281,397;  278,875;  281,665
299,448;  312,307;  312,466;  310,885
299,534;  313,867;  312,355;  312,735
299,621;  309,057;  304,655;  303,865
299,707;  305,158;  299,016;  304,675
299,794;  320,647;  319,885;  319,685
299,880;  321,897;  317,076;  318,325
299,967;  296,987;  296,345;  296,295
300,053;  297,888;  295,935;  299,065
300,140;  327,767;  323,086;  328,875
300,226;  314,777;  313,885;  313,595
300,312;  308,467;  307,276;  306,695
300,399;  309,568;  305,505;  308,465
300,485;  302,828;  297,776;  301,725
300,572;  280,717;  281,655;  281,655
300,658;  297,878;  297,216;  294,585
300,744;  311,698;  310,706;  311,315
300,831;  319,168;  313,595;  318,275
300,917;  323,438;  321,676;  320,915
301,004;  314,418;  311,556;  311,015
301,090;  283,668;  277,785;  280,095
301,176;  285,867;  284,255;  288,205
301,263;  315,818;  313,676;  314,925
301,349;  294,388;  289,475;  293,305
301,435;  288,978;  284,276;  285,095
301,521;  319,348;  314,625;  313,245
301,608;  315,837;  314,695;  315,515
301,694;  302,867;  297,896;  300,535
301,780;  302,288;  303,046;  298,285
301,867;  288,897;  280,836;  285,265
301,953;  312,147;  296,595;  301,165
302,039;  382,918;  295,116;  297,515
302,125;  541,398;  298,445;  304,125
302,211;  360,867;  332,926;  334,115
302,298;  351,867;  301,926;  305,295
302,384;  301,017;  281,116;  287,095
302,470;  296,358;  289,505;  291,305
302,556;  307,318;  301,935;  305,645
302,642;  296,878;  293,456;  295,155
302,729;  303,457;  289,306;  293,525
302,815;  316,848;  317,966;  319,775
302,901;  300,668;  296,475;  298,745
302,987;  309,888;  307,716;  308,245
303,073;  303,378;  304,185;  302,795
303,159;  301,207;  296,945;  298,695
303,245;  289,367;  284,336;  290,495
303,331;  286,277;  283,486;  286,455
303,417;  298,438;  294,556;  296,145
303,503;  312,457;  310,046;  312,155
303,590;  290,158;  289,146;  291,705
303,676;  300,408;  299,505;  300,385
303,762;  287,247;  287,185;  287,835
303,848;  314,247;  311,026;  312,055
303,934;  312,277;  304,915;  307,775
304,020;  303,788;  301,796;  304,745
304,106;  315,767;  309,975;  314,015
304,192;  297,038;  291,796;  296,765
304,278;  305,128;  302,896;  304,455
304,364;  326,878;  323,026;  324,755
304,450;  305,297;  301,496;  304,095
304,535;  305,427;  304,005;  304,245
304,621;  302,307;  301,565;  302,205
304,707;  307,797;  306,296;  307,635
304,793;  323,638;  318,625;  318,575
304,879;  307,538;  306,776;  310,585
304,965;  316,017;  312,845;  313,365
305,051;  310,527;  308,616;  311,355
305,137;  320,087;  318,146;  324,235
305,223;  291,328;  291,445;  293,725
305,309;  316,337;  313,496;  317,755
305,394;  312,818;  311,996;  311,465
305,480;  304,908;  299,426;  304,775
305,566;  309,198;  309,355;  310,525
305,652;  316,337;  313,605;  317,885
305,738;  350,358;  349,206;  353,435
305,824;  314,897;  316,016;  315,095
305,909;  326,967;  323,815;  325,155
305,995;  289,987;  289,595;  290,025
306,081;  349,408;  348,345;  350,435
306,167;  305,908;  303,966;  307,875
306,252;  327,957;  324,375;  325,505
306,338;  336,087;  331,366;  335,515
306,424;  307,427;  306,595;  307,415
306,510;  323,517;  316,105;  319,795
306,595;  326,188;  323,685;  322,125
306,681;  318,698;  316,926;  318,895
306,767;  307,337;  305,336;  309,425
306,852;  332,128;  328,255;  331,375
306,938;  326,617;  325,796;  325,905
307,024;  303,198;  302,875;  304,755
307,109;  340,978;  336,065;  338,965
307,195;  316,837;  316,326;  318,385
307,281;  322,677;  318,716;  318,575
307,366;  313,487;  313,345;  310,455
307,452;  319,047;  312,426;  316,335
307,537;  298,128;  296,776;  298,485
307,623;  295,598;  292,105;  296,985
307,709;  311,948;  309,885;  310,795
307,794;  290,957;  288,576;  291,835
307,880;  322,158;  320,236;  319,735
307,965;  310,038;  307,456;  307,525
308,051;  297,767;  297,195;  298,065
308,136;  295,177;  297,165;  296,745
308,222;  304,047;  300,366;  302,045
308,307;  300,688;  295,116;  296,645
308,393;  301,628;  295,535;  300,335
308,478;  319,728;  321,826;  318,975
308,564;  291,397;  295,516;  288,925
308,649;  308,367;  308,496;  308,295
308,735;  301,408;  294,155;  300,535
308,820;  318,967;  320,655;  319,455
308,906;  299,367;  291,625;  300,515
308,991;  341,698;  341,076;  338,375
309,076;  322,328;  319,336;  320,645
309,162;  284,587;  283,945;  283,805
309,247;  311,897;  309,945;  308,415
309,333;  296,057;  291,646;  297,855
309,418;  302,717;  298,665;  301,955
309,503;  300,758;  297,646;  300,235
309,589;  303,267;  303,725;  305,345
309,674;  291,997;  290,945;  289,235
309,759;  304,128;  303,315;  304,195
309,845;  312,497;  311,016;  312,415
309,930;  310,158;  305,966;  307,375
310,015;  282,828;  276,095;  276,835
310,101;  315,217;  315,616;  319,905
310,186;  287,587;  285,426;  288,565
310,271;  302,297;  297,296;  298,295
310,357;  300,348;  297,526;  296,455
310,442;  307,497;  302,445;  303,865
310,527;  302,188;  297,766;  301,125
310,612;  278,427;  278,195;  281,425
310,698;  320,277;  319,725;  321,135
310,783;  305,027;  301,176;  302,685
310,868;  298,397;  294,285;  295,125
310,953;  290,147;  284,165;  285,195
311,038;  313,608;  311,146;  310,075
311,124;  295,788;  294,635;  290,925
311,209;  281,658;  276,736;  277,355
311,294;  315,858;  310,206;  312,575
311,379;  282,228;  276,785;  277,345
311,464;  301,997;  297,405;  297,635
311,549;  287,568;  282,385;  284,505
311,634;  290,957;  290,396;  286,805
311,719;  322,358;  316,016;  315,415
311,805;  295,328;  289,266;  291,605
311,890;  303,788;  295,165;  295,925
311,975;  295,068;  281,526;  286,055
312,060;  309,878;  298,146;  302,435
312,145;  292,258;  277,586;  276,025
312,230;  316,717;  290,815;  296,495
312,315;  332,478;  294,065;  296,045
312,400;  405,578;  296,396;  299,795
312,485; 1582,448;  290,535;  292,475
312,570; 1254,488;  277,125;  279,615
312,655;  348,747;  308,176;  313,325
312,740;  331,638;  301,616;  302,005
312,825;  341,777;  304,105;  307,725
312,910;  360,128;  307,736;  309,235
312,995;  443,478;  296,236;  298,245
313,080; 1969,917;  285,655;  286,805
313,165; 2184,978;  303,565;  305,305
313,250;  367,728;  287,276;  287,825
313,335;  325,328;  307,435;  312,125
313,419;  283,538;  267,466;  268,635
313,504;  323,717;  313,355;  315,225
313,589;  310,267;  295,216;  297,545
313,674;  313,807;  307,206;  310,085
313,759;  290,217;  281,556;  282,625
313,844;  303,598;  292,776;  291,005
313,929;  300,038;  289,945;  291,695
314,014;  319,797;  313,306;  315,005
314,098;  307,758;  299,035;  300,425
314,183;  268,707;  263,505;  263,795
314,268;  300,788;  296,496;  298,955
314,353;  309,578;  302,026;  306,185
314,438;  316,557;  306,905;  311,515
314,522;  314,598;  309,486;  308,535
314,607;  311,177;  307,565;  307,855
314,692;  304,038;  301,885;  303,855
314,777;  293,388;  291,766;  292,395
314,861;  282,228;  277,285;  276,385
314,946;  319,147;  315,116;  317,565
315,031;  293,938;  291,875;  294,115
315,115;  310,378;  306,206;  308,065
315,200;  313,878;  312,146;  313,065
315,285;  289,867;  289,486;  289,595
315,369;  291,138;  287,945;  288,545
315,454;  311,767;  311,905;  311,025
315,539;  310,918;  310,246;  307,795
315,623;  313,467;  309,426;  313,225
315,708;  337,957;  335,605;  336,825
315,793;  299,918;  297,986;  298,155
315,877;  308,848;  302,975;  305,445
315,962;  291,147;  289,105;  291,925
316,046;  317,517;  317,065;  319,225
316,131;  337,397;  334,516;  337,215
316,216;  311,188;  310,315;  310,785
316,300;  302,557;  303,345;  302,165
316,385;  324,158;  325,315;  324,305
316,469;  328,908;  330,625;  331,955
316,554;  300,767;  296,005;  298,425
316,638;  299,117;  296,725;  301,565
316,723;  294,337;  292,546;  293,795
316,807;  297,237;  299,595;  299,275
316,892;  291,878;  288,975;  289,925
316,976;  318,677;  314,405;  316,505
317,061;  307,818;  306,035;  305,965
317,145;  327,478;  327,655;  325,965
317,230;  320,207;  321,505;  319,905
317,314;  278,497;  275,565;  275,085
317,398;  313,878;  310,706;  312,245
317,483;  289,138;  290,026;  291,085
317,567;  320,138;  315,326;  317,865
317,652;  283,828;  283,526;  286,625
317,736;  308,788;  308,776;  309,285
317,820;  335,277;  329,005;  334,665
317,905;  306,908;  306,706;  307,035
317,989;  300,217;  298,285;  300,875
318,073;  299,427;  298,076;  297,705
318,158;  287,848;  284,966;  285,565
318,242;  301,807;  296,845;  299,095
318,326;  287,747;  283,155;  284,015
318,411;  295,918;  295,125;  296,565
318,495;  287,307;  285,776;  287,165
318,579;  287,538;  288,746;  289,305
318,664;  283,038;  280,315;  284,255
318,748;  311,527;  305,996;  310,145
318,832;  289,408;  290,806;  289,475
318,916;  277,848;  274,785;  277,335
319,001;  298,707;  299,945;  301,485
319,085;  292,598;  292,885;  290,905
319,169;  298,788;  293,396;  294,485
319,253;  291,047;  287,216;  285,525
319,337;  305,057;  306,246;  304,885
319,422;  314,367;  316,125;  313,225
319,506;  286,638;  283,326;  285,905
319,590;  307,717;  303,915;  305,525
319,674;  294,307;  291,926;  295,405
319,758;  299,168;  295,165;  300,215
319,842;  309,478;  306,135;  309,155
319,926;  296,497;  294,815;  295,205
320,010;  268,867;  267,046;  269,575
320,095;  287,538;  280,926;  284,685
320,179;  283,147;  279,125;  281,175
320,263;  286,078;  277,385;  285,805
320,347;  275,087;  271,296;  279,075
320,431;  275,557;  273,435;  274,355
320,515;  299,027;  296,375;  299,935
320,599;  272,587;  269,866;  273,825
320,683;  307,918;  305,706;  305,495
320,767;  267,038;  266,236;  266,205
320,851;  286,027;  281,855;  287,785
320,935;  316,517;  312,565;  318,275
321,019;  292,087;  292,975;  290,075
321,103;  278,408;  278,135;  280,585
321,187;  275,608;  273,165;  273,265
321,271;  293,967;  294,616;  296,825
321,355;  284,098;  281,595;  283,805
321,439;  301,707;  301,216;  301,725
321,523;  281,908;  282,266;  284,705
321,606;  289,297;  287,426;  288,215
321,690;  285,788;  287,026;  288,215
321,774;  293,258;  288,336;  292,205
321,858;  292,927;  292,966;  291,945
321,942;  296,807;  294,276;  298,975
322,026;  285,297;  283,315;  282,695
322,110;  296,478;  293,146;  295,755
322,194;  298,938;  295,355;  301,055
322,277;  287,478;  286,135;  287,285
322,361;  278,737;  278,595;  281,215
322,445;  291,068;  289,315;  291,095
322,529;  296,288;  297,716;  299,645
322,613;  299,517;  297,206;  297,795
322,696;  268,228;  267,695;  272,865
322,780;  285,467;  283,026;  283,485
322,864;  278,418;  272,625;  279,835
322,948;  294,228;  292,326;  295,965
323,031;  279,918;  281,565;  282,215
323,115;  289,628;  284,586;  285,215
323,199;  297,258;  296,565;  299,105
323,282;  309,987;  307,496;  310,065
323,366;  290,767;  287,296;  293,625
323,450;  278,668;  273,496;  275,835
323,533;  316,647;  314,576;  317,415
323,617;  273,117;  268,695;  271,585
323,701;  283,737;  281,105;  283,575
323,784;  296,587;  292,576;  294,205
323,868;  297,228;  297,866;  299,875
323,952;  296,918;  290,966;  294,175
324,035;  309,418;  305,926;  310,825
324,119;  299,508;  295,466;  298,455
324,202;  287,328;  286,836;  292,745
324,286;  290,198;  284,986;  286,605
324,370;  299,717;  293,105;  296,765
324,453;  303,427;  299,616;  301,745
324,537;  297,807;  294,426;  298,035
324,620;  290,647;  286,635;  291,765
324,704;  275,967;  270,445;  276,525
324,787;  296,608;  294,875;  296,265
324,871;  312,677;  310,986;  315,255
324,954;  313,758;  312,246;  315,985
325,038;  310,297;  306,466;  306,985
325,121;  312,677;  308,695;  312,075
325,205;  293,068;  290,396;  293,295
325,288;  282,497;  279,556;  285,675
325,371;  303,568;  298,945;  302,395
325,455;  316,098;  314,026;  312,045
325,538;  285,878;  281,516;  287,185
325,622;  326,047;  320,806;  321,295
325,705;  298,938;  297,716;  298,675
325,788;  318,967;  313,625;  316,645
325,872;  300,638;  300,796;  300,745
325,955;  323,647;  319,845;  325,065
326,039;  310,237;  309,576;  312,795
326,122;  313,388;  310,746;  311,665
326,205;  312,818;  311,806;  310,235
326,289;  321,867;  313,986;  319,245
326,372;  300,538;  294,746;  299,195
326,455;  325,598;  323,095;  324,405
326,538;  316,487;  312,336;  316,545
326,622;  322,108;  318,396;  320,075
326,705;  287,397;  287,315;  287,875
326,788;  323,918;  321,266;  322,405
326,871;  319,677;  315,576;  317,965
326,955;  314,688;  313,836;  315,225
327,038;  309,717;  310,116;  310,855
327,121;  306,367;  301,516;  307,855
327,204;  316,217;  313,216;  314,045
327,288;  330,938;  328,956;  332,375
327,371;  295,647;  288,185;  296,955
327,454;  316,728;  313,065;  313,845
327,537;  299,608;  299,815;  302,435
327,620;  328,938;  322,935;  330,145
327,703;  311,858;  309,076;  310,615
327,786;  313,038;  311,076;  312,115
327,870;  326,658;  323,155;  328,715
327,953;  305,698;  301,155;  305,785
328,036;  298,617;  293,105;  299,035
328,119;  320,098;  317,576;  321,135
328,202;  306,737;  301,885;  305,875
328,285;  327,668;  326,776;  329,015
328,368;  322,288;  320,935;  322,625
328,451;  322,457;  320,635;  322,565
328,534;  305,587;  301,266;  307,075
328,617;  306,737;  305,676;  311,785
328,700;  328,158;  326,505;  326,695
328,783;  324,217;  320,785;  322,875
328,866;  319,027;  314,095;  319,935
328,949;  321,318;  319,966;  326,555
329,032;  302,737;  297,826;  300,605
329,115;  294,707;  290,905;  295,945
329,198;  282,647;  282,956;  283,785
329,281;  300,198;  299,336;  298,465
329,364;  313,978;  316,246;  319,245
329,447;  312,337;  307,176;  309,255
329,530;  329,177;  328,155;  328,175
329,613;  302,017;  300,565;  306,725
329,696;  331,448;  326,806;  330,715
329,778;  313,767;  311,306;  316,915
329,861;  297,707;  295,236;  299,565
329,944;  325,068;  321,685;  327,225
330,027;  314,647;  311,576;  315,115
330,110;  310,457;  307,595;  311,705
330,193;  299,677;  295,306;  299,955
330,275;  314,367;  312,296;  315,835
330,358;  296,747;  291,776;  296,185
330,441;  324,978;  323,586;  325,365
330,524;  310,527;  305,216;  311,095
330,607;  305,737;  304,345;  306,905
330,689;  311,758;  313,105;  314,535
330,772;  312,008;  311,105;  312,425
330,855;  324,188;  325,065;  327,855
330,938;  322,128;  312,315;  321,275
331,020;  318,918;  317,176;  320,535
331,103;  294,008;  293,035;  294,505
331,186;  306,418;  305,146;  307,085
331,268;  299,598;  293,565;  298,695
331,351;  316,888;  313,026;  316,455
331,434;  311,508;  308,385;  312,645
331,516;  318,038;  319,076;  321,185
331,599;  303,878;  297,095;  301,425
331,682;  313,297;  310,736;  310,985
331,764;  300,647;  293,326;  297,915
331,847;  317,228;  313,716;  315,705
331,929;  292,297;  290,026;  293,225
332,012;  312,978;  309,625;  310,055
332,095;  326,908;  323,306;  326,625
332,177;  323,038;  320,806;  324,285
332,260;  329,467;  327,526;  328,035
332,342;  313,747;  309,246;  314,445
332,425;  313,337;  312,516;  311,505
332,507;  309,908;  308,526;  311,575
332,590;  292,948;  287,595;  291,655
332,672;  299,237;  294,885;  298,455
332,755;  307,957;  306,855;  311,605
332,837;  309,098;  310,716;  312,255
332,920;  316,047;  309,076;  315,155
333,002;  332,517;  325,676;  328,895
333,085;  312,348;  313,375;  315,165
333,167;  300,628;  296,875;  298,575
333,249;  294,457;  294,526;  298,145
333,332;  297,068;  293,296;  297,715
333,414;  303,658;  300,035;  304,875
333,497;  302,878;  300,255;  302,305
333,579;  302,538;  300,996;  306,375
333,661;  321,098;  319,706;  320,745
333,744;  296,247;  293,695;  297,125
333,826;  308,078;  305,766;  306,065
333,908;  319,427;  313,896;  316,665
333,991;  305,367;  291,266;  291,545
334,073;  468,038;  312,706;  318,525
334,155;  360,587;  304,086;  305,525
334,238;  326,668;  318,576;  326,145
334,320;  302,348;  297,046;  300,585
334,402;  305,668;  302,996;  304,895
334,485;  303,448;  303,655;  304,015
334,567;  300,837;  299,776;  301,975
334,649;  280,098;  278,426;  282,925
334,731;  317,978;  313,456;  317,305
334,813;  314,427;  315,605;  320,355
334,896;  291,158;  290,185;  294,595
334,978;  307,188;  309,165;  302,585
335,060;  305,228;  304,255;  304,235
335,142;  300,427;  301,665;  302,275
335,224;  311,078;  309,766;  311,745
335,307;  296,707;  297,456;  298,965
335,389;  316,158;  310,385;  317,305
335,471;  300,628;  299,896;  306,115
335,553;  321,277;  319,866;  318,905
335,635;  315,527;  312,836;  315,315
335,717;  300,438;  298,195;  300,145
335,799;  322,807;  322,695;  323,585
335,881;  279,128;  278,385;  282,845
335,963;  291,108;  291,796;  293,005
336,045;  296,147;  295,516;  301,085
336,128;  275,358;  270,945;  275,225
336,210;  292,247;  288,996;  292,295
336,292;  297,388;  297,845;  300,615
336,374;  305,538;  300,956;  306,155
336,456;  287,938;  285,616;  288,495
336,538;  304,737;  303,165;  304,435
336,620;  309,418;  310,576;  312,205
336,702;  291,128;  294,766;  294,235
336,783;  308,237;  302,556;  304,225
336,865;  307,508;  304,176;  305,725
336,947;  311,658;  308,486;  311,205
337,029;  283,598;  281,826;  282,945
337,111;  318,448;  316,266;  316,735
337,193;  285,158;  280,986;  284,795
337,275;  312,897;  310,815;  314,535
337,357;  323,198;  318,815;  324,805
337,439;  309,078;  305,255;  310,655
337,521;  280,777;  277,225;  280,915
337,602;  299,957;  298,435;  301,085
337,684;  315,647;  315,635;  317,455
337,766;  309,478;  312,266;  312,305
337,848;  297,948;  295,086;  301,025
337,930;  302,138;  303,165;  306,525
338,012;  297,668;  298,586;  299,555
338,093;  313,147;  312,396;  315,895
338,175;  321,427;  318,195;  321,575
338,257;  306,878;  306,945;  309,225
338,339;  297,497;  294,086;  300,165
338,420;  309,948;  310,986;  310,895
338,502;  301,217;  298,836;  304,265
338,584;  287,348;  286,736;  289,235
338,666;  302,538;  303,426;  302,365
338,747;  334,557;  330,806;  334,875
338,829;  308,168;  309,176;  309,265
338,911;  295,367;  296,236;  298,915
338,992;  296,087;  295,746;  294,435
339,074;  307,207;  306,155;  307,855
339,156;  299,497;  298,176;  303,395
339,237;  325,307;  325,035;  327,765
339,319;  295,767;  294,935;  300,045
339,400;  309,087;  309,065;  311,225
339,482;  277,318;  278,165;  280,605
339,564;  316,948;  317,026;  316,575
339,645;  304,818;  304,595;  308,105
339,727;  292,358;  290,216;  294,375
339,808;  320,957;  317,685;  322,555
339,890;  303,848;  299,956;  302,415
339,971;  314,677;  307,016;  315,055
340,053;  336,878;  336,746;  335,255
340,134;  299,198;  296,535;  298,415
340,216;  318,008;  315,556;  319,645
340,297;  299,828;  298,396;  301,525
340,379;  315,598;  314,736;  316,975
340,460;  307,318;  306,685;  306,615
340,542;  297,267;  294,535;  297,775
340,623;  310,508;  307,926;  312,435
340,705;  298,078;  297,516;  295,795
340,786;  290,378;  289,685;  291,925
340,868;  305,767;  308,826;  304,055
340,949;  285,957;  285,605;  286,145
341,030;  326,628;  321,435;  328,715
341,112;  280,108;  280,565;  284,075
341,193;  272,638;  270,135;  273,595
341,274;  321,938;  322,176;  320,965
341,356;  324,448;  320,716;  321,795
341,437;  301,457;  301,635;  300,825
341,518;  312,747;  307,176;  314,795
341,600;  320,797;  320,866;  322,465
341,681;  330,758;  328,866;  332,375
341,762;  324,707;  325,206;  323,705
341,844;  288,888;  287,146;  292,185
341,925;  311,438;  308,225;  311,205
342,006;  322,557;  320,426;  323,055
342,087;  290,177;  288,095;  292,095
342,169;  309,728;  307,026;  309,845
342,250;  288,237;  286,935;  285,935
342,331;  295,608;  298,706;  299,075
342,412;  308,837;  307,655;  310,045
342,493;  293,068;  289,415;  293,325
342,575;  329,258;  327,095;  327,355
342,656;  317,487;  318,466;  318,265
342,737;  331,087;  329,836;  330,295
342,818;  307,337;  307,996;  309,015
342,899;  318,888;  314,505;  317,165
342,980;  307,948;  306,695;  310,155
343,061;  304,457;  303,065;  304,715
343,143;  320,448;  319,535;  319,565
343,224;  311,408;  306,706;  305,915
343,305;  304,478;  299,625;  303,115
343,386;  300,717;  297,996;  300,475
343,467;  305,888;  303,155;  305,535
343,548;  307,628;  304,176;  305,935
343,629;  317,378;  316,405;  317,625
343,710;  323,247;  322,766;  321,015
343,791;  325,318;  325,065;  327,935
343,872;  300,837;  298,975;  297,795
343,953;  316,538;  314,826;  316,625
344,034;  319,948;  319,475;  324,485
344,115;  308,698;  304,255;  303,425
344,196;  299,038;  298,935;  302,165
344,277;  296,198;  293,306;  294,615
344,358;  307,717;  304,755;  307,345
344,439;  297,358;  293,975;  294,205
344,520;  302,408;  298,546;  300,975
344,601;  316,608;  314,646;  315,525
344,681;  306,008;  302,426;  303,825
344,762;  286,307;  283,466;  287,625
344,843;  279,828;  275,996;  281,125
344,924;  306,668;  303,635;  306,085
345,005;  290,228;  287,176;  288,725
345,086;  309,168;  307,665;  309,725
345,167;  294,117;  293,986;  295,575
345,247;  325,908;  323,896;  328,905
345,328;  316,277;  315,315;  317,705
345,409;  308,547;  307,056;  309,355
345,490;  308,108;  308,415;  314,245
345,571;  310,258;  304,875;  312,045
345,651;  284,068;  279,456;  279,055
345,732;  308,217;  307,285;  312,275
345,813;  315,818;  311,836;  317,355
345,894;  286,967;  285,785;  287,595
345,974;  307,587;  309,556;  311,845
346,055;  298,358;  296,435;  295,735
346,136;  308,987;  304,405;  306,245
346,216;  324,908;  324,945;  328,565
346,297;  306,918;  306,565;  304,225
346,378;  293,818;  291,996;  294,005
346,458;  311,497;  307,375;  313,405
346,539;  305,188;  302,306;  305,975
346,620;  306,367;  305,815;  306,685
346,700;  289,168;  288,755;  289,765
346,781;  285,568;  284,556;  286,765
346,861;  302,908;  304,336;  307,325
346,942;  303,638;  304,336;  302,715
347,023;  318,747;  317,885;  316,005
347,103;  299,598;  297,396;  302,825
347,184;  296,418;  294,475;  296,785
347,264;  293,867;  294,565;  296,805
347,345;  287,767;  290,526;  295,525
347,425;  289,207;  285,125;  290,565
347,506;  283,038;  283,595;  283,195
347,586;  291,587;  289,725;  292,435
347,667;  307,487;  307,616;  304,445
347,747;  310,758;  311,116;  310,775
347,828;  299,467;  296,486;  296,465
347,908;  307,047;  303,306;  307,175
347,988;  301,747;  298,655;  306,125
348,069;  313,288;  311,056;  311,395
348,149;  308,297;  303,956;  309,065
348,230;  310,837;  309,956;  310,945
348,310;  285,677;  284,185;  285,715
348,390;  286,297;  288,526;  288,625
348,471;  302,517;  303,665;  305,125
348,551;  292,987;  290,695;  293,935
348,632;  293,228;  289,505;  294,065
348,712;  291,358;  292,706;  295,115
348,792;  329,108;  329,836;  329,985
348,873;  281,098;  281,905;  283,045
348,953;  291,388;  289,845;  290,395
349,033;  301,888;  297,466;  299,465
349,113;  287,198;  286,076;  286,905
349,194;  304,978;  301,595;  304,825
349,274;  307,438;  304,796;  307,395
349,354;  306,047;  303,046;  308,435
349,434;  302,608;  300,116;  301,925
349,515;  321,547;  316,486;  322,185
349,595;  303,908;  302,206;  302,035
349,675;  309,087;  305,635;  308,015
349,755;  299,478;  296,746;  297,615
349,835;  305,427;  301,195;  307,695
349,916;  298,758;  298,435;  303,915
349,996;  290,997;  291,105;  291,745
350,076;  313,538;  312,375;  317,645
350,156;  284,547;  284,836;  287,665
350,236;  314,307;  314,116;  311,925
350,316;  293,177;  292,975;  295,765
350,396;  308,397;  305,646;  310,065
350,476;  304,948;  301,826;  304,275
350,556;  296,547;  293,966;  299,935
350,637;  317,897;  321,005;  321,825
350,717;  292,737;  288,445;  291,825
350,797;  306,467;  302,616;  305,905
350,877;  295,087;  289,875;  294,705
350,957;  297,337;  297,635;  300,095
351,037;  303,758;  298,556;  303,455
351,117;  297,478;  296,276;  296,555
351,197;  302,297;  303,366;  306,305
351,277;  304,138;  300,556;  301,575
351,357;  311,987;  308,806;  314,445
351,437;  305,568;  306,105;  307,755
351,516;  321,138;  317,986;  318,355
351,596;  297,448;  292,896;  296,025
351,676;  291,397;  290,405;  294,265
351,756;  327,448;  323,426;  326,135
351,836;  315,978;  313,866;  317,935
351,916;  297,698;  297,905;  298,975
351,996;  304,297;  303,996;  305,265
352,076;  303,288;  303,486;  303,085
352,156;  322,418;  319,556;  320,405
352,235;  302,367;  301,255;  300,955
352,315;  308,578;  312,456;  314,415
352,395;  308,688;  308,206;  309,425
352,475;  319,138;  315,405;  320,955
352,555;  331,427;  330,236;  330,635
352,634;  325,758;  321,956;  326,705
352,714;  303,087;  302,595;  304,055
352,794;  353,878;  354,466;  358,075
352,874;  315,237;  314,685;  317,555
352,953;  338,568;  337,676;  339,095
353,033;  321,807;  319,306;  320,925
353,113;  334,457;  332,135;  336,575
353,193;  327,277;  328,046;  329,935
353,272;  331,987;  333,135;  334,365
353,352;  309,807;  307,035;  311,285
353,432;  346,878;  343,005;  347,495
353,511;  325,177;  326,185;  330,665
353,591;  360,997;  361,616;  362,555
353,671;  334,807;  331,926;  333,015
353,750;  334,318;  332,296;  331,275
353,830;  315,617;  313,646;  317,015
353,909;  344,908;  339,836;  343,655
353,989;  315,538;  317,385;  320,255
354,069;  319,517;  319,456;  319,155
354,148;  338,837;  335,035;  339,585
354,228;  317,297;  315,695;  316,905
354,307;  331,878;  329,405;  332,345
354,387;  324,078;  322,095;  322,965
354,466;  315,878;  311,635;  316,045
354,546;  335,617;  335,135;  337,645
354,625;  315,967;  319,815;  320,355
354,705;  324,508;  324,246;  326,865
354,784;  318,337;  316,445;  318,195
354,864;  317,068;  316,635;  317,385
354,943;  337,938;  333,695;  339,105
355,023;  309,328;  310,996;  312,285
355,102;  364,438;  362,866;  363,435
355,181;  315,807;  315,966;  318,045
355,261;  342,438;  338,056;  342,165
355,340;  304,858;  303,845;  307,115
355,420;  343,797;  340,105;  342,305
355,499;  324,927;  322,975;  325,635
355,578;  317,767;  315,276;  316,885
355,658;  334,668;  332,875;  333,745
355,737;  320,927;  317,576;  319,005
355,816;  324,448;  323,276;  324,605
355,896;  319,457;  316,026;  321,355
355,975;  307,807;  307,355;  310,055
356,054;  311,508;  311,935;  312,455
356,133;  295,008;  290,565;  293,305
356,213;  325,547;  324,845;  324,825
356,292;  307,247;  304,016;  309,325
356,371;  315,057;  314,146;  314,035
356,451;  324,737;  324,755;  327,685
356,530;  346,367;  349,496;  350,795
356,609;  317,728;  311,146;  315,535
356,688;  319,818;  316,475;  316,165
356,767;  304,777;  304,695;  309,855
356,846;  326,117;  327,035;  327,235
356,926;  342,138;  340,016;  343,965
357,005;  318,698;  318,345;  318,565
357,084;  308,747;  304,466;  308,385
357,163;  319,797;  317,706;  317,185
357,242;  319,737;  320,146;  319,515
357,321;  314,897;  314,496;  316,575
357,400;  320,457;  321,236;  318,865
357,479;  317,047;  317,725;  320,795
357,559;  327,508;  321,405;  325,705
357,638;  301,677;  300,616;  298,815
357,717;  313,008;  313,746;  311,555
357,796;  331,408;  329,266;  330,875
357,875;  313,318;  314,466;  313,455
357,954;  311,707;  310,155;  313,855
358,033;  319,207;  323,405;  320,935
358,112;  331,418;  329,966;  328,315
358,191;  319,057;  315,276;  318,965
358,270;  296,707;  295,505;  297,695
358,349;  323,038;  321,625;  323,725
358,428;  326,267;  322,445;  326,125
358,507;  321,517;  321,366;  325,105
358,585;  318,698;  320,355;  325,525
358,664;  331,188;  332,266;  334,505
358,743;  327,068;  323,776;  326,515
358,822;  336,957;  334,475;  338,195
358,901;  311,307;  309,176;  309,505
358,980;  310,147;  310,885;  313,735
359,059;  329,777;  328,616;  332,255
359,138;  329,527;  329,415;  328,565
359,216;  323,497;  322,225;  327,485
359,295;  308,098;  309,475;  309,515
359,374;  333,668;  330,026;  333,455
359,453;  320,967;  316,345;  320,885
359,532;  305,747;  304,526;  308,455
359,610;  323,707;  319,556;  323,285
359,689;  333,628;  331,116;  333,025
359,768;  314,207;  313,706;  315,305
359,847;  305,047;  302,065;  305,385
359,925;  303,397;  304,105;  307,215
360,004;  301,348;  299,565;  302,585
360,083;  320,967;  320,165;  321,795
360,161;  309,177;  305,676;  309,885
360,240;  292,177;  288,725;  291,455
360,319;  315,527;  318,276;  317,225
360,397;  328,448;  324,986;  331,265
360,476;  322,497;  318,296;  324,355
360,555;  345,987;  345,565;  346,835
360,633;  301,508;  304,456;  304,945
360,712;  310,908;  309,056;  311,825
360,790;  333,448;  330,065;  331,185
360,869;  312,168;  310,266;  313,085
360,948;  320,158;  322,466;  322,235
361,026;  302,608;  300,065;  301,245
361,105;  309,728;  306,116;  309,875
361,183;  324,457;  324,725;  326,345
361,262;  304,797;  302,375;  307,465
361,340;  310,747;  305,815;  306,875
361,419;  290,688;  289,896;  290,845
361,497;  343,328;  340,926;  346,955
361,576;  321,128;  317,736;  323,245
361,654;  345,098;  342,736;  343,615
361,733;  297,848;  297,366;  297,305
361,811;  331,027;  329,065;  331,875
361,890;  290,448;  292,595;  293,595
361,968;  317,557;  313,706;  316,715
362,046;  337,128;  335,296;  335,795
362,125;  341,758;  337,435;  340,865
362,203;  317,027;  314,635;  316,745
362,282;  333,647;  328,676;  334,675
362,360;  320,867;  318,315;  323,125
362,438;  316,918;  313,565;  317,495
362,517;  356,688;  357,725;  357,035
362,595;  340,448;  340,956;  345,025
362,673;  337,297;  334,576;  338,035
362,752;  328,027;  326,366;  329,445
362,830;  344,228;  343,155;  338,795
362,908;  325,848;  322,885;  326,315
362,986;  335,138;  333,595;  334,645
363,065;  329,228;  326,405;  330,985
363,143;  362,177;  359,875;  363,525
363,221;  319,478;  313,755;  319,675
363,299;  314,848;  315,845;  315,595
363,378;  328,818;  327,546;  328,495
363,456;  305,807;  304,326;  305,295
363,534;  330,027;  323,996;  327,895
363,612;  331,117;  327,546;  330,285
363,690;  340,378;  337,885;  341,915
363,769;  354,188;  349,336;  354,965
363,847;  334,638;  332,326;  333,935
363,925;  311,578;  303,095;  306,775
364,003;  356,848;  350,866;  351,845
364,081;  341,978;  336,345;  339,765
364,159;  340,397;  331,836;  334,695
364,237;  349,908;  341,276;  343,025
364,315;  330,267;  318,866;  320,765
364,393;  362,448;  350,935;  355,465
364,471;  346,247;  328,185;  329,975
364,549;  353,168;  333,026;  334,495
364,627;  359,638;  323,095;  327,065
364,705;  367,777;  311,135;  310,945
364,783;  438,508;  323,496;  332,235
364,861; 1019,557;  331,396;  334,915
364,939; 3546,347;  314,086;  319,855
365,017;  806,448;  306,046;  310,735
365,095;  371,647;  322,116;  324,495
365,173;  377,457;  345,556;  349,605
365,251;  384,008;  341,535;  344,665
365,329;  533,968;  346,466;  345,195
365,407; 1144,338;  318,345;  321,385
365,485;  464,908;  344,826;  348,395
365,563;  360,388;  344,306;  346,815
365,641;  338,328;  331,896;  331,005
365,719;  346,147;  337,095;  336,965
365,796;  341,967;  334,926;  336,075
365,874;  357,348;  347,426;  349,165
365,952;  319,108;  309,516;  312,925
366,030;  347,017;  334,866;  333,525
366,108;  363,557;  326,345;  328,575
366,185;  624,888;  338,396;  343,695
366,263;  868,287;  334,646;  340,035
366,341;  382,978;  334,125;  339,925
366,419;  338,378;  331,535;  331,355
366,496;  352,908;  342,655;  345,225
366,574;  331,448;  325,826;  329,315
366,652;  354,777;  345,296;  349,635
366,730;  370,228;  365,475;  368,065
366,807;  336,217;  330,845;  334,945
366,885;  328,517;  321,135;  327,175
366,963;  335,527;  329,016;  331,635
367,040;  352,147;  345,815;  352,465
367,118;  327,027;  321,875;  325,205
367,196;  350,128;  341,896;  344,715
367,273;  339,568;  335,845;  338,245
367,351;  329,938;  328,155;  331,125
367,428;  357,728;  355,016;  356,915
367,506;  334,728;  329,225;  333,905
367,584;  364,848;  360,216;  363,085
367,661;  343,888;  341,785;  346,585
367,739;  334,617;  328,466;  334,835
367,816;  322,978;  320,345;  324,175
367,894;  345,348;  339,146;  345,755
367,971;  336,557;  329,885;  333,335
368,049;  355,688;  349,586;  353,435
368,126;  318,777;  314,625;  317,265
368,204;  355,948;  351,836;  352,775
368,281;  355,017;  353,225;  355,775
368,359;  352,348;  348,806;  354,965
368,436;  347,927;  342,385;  348,785
368,514;  350,717;  349,646;  351,035
368,591;  348,388;  343,486;  348,405
368,668;  348,467;  347,486;  351,455
368,746;  360,818;  358,556;  362,125
368,823;  342,897;  342,405;  345,515
368,901;  338,728;  339,046;  341,025
368,978;  358,767;  354,975;  361,925
369,055;  345,617;  343,826;  347,145
369,133;  368,228;  367,046;  368,725
369,210;  342,948;  339,206;  342,185
369,287;  367,797;  367,986;  371,205
369,365;  371,348;  368,896;  369,715
369,442;  350,358;  346,826;  351,135
369,519;  308,777;  306,396;  310,475
369,596;  371,008;  369,005;  372,695
369,674;  336,288;  336,526;  336,705
369,751;  369,337;  368,005;  369,405
369,828;  352,938;  350,366;  351,255
369,905;  357,997;  354,796;  358,705
369,983;  336,078;  329,826;  336,485
370,060;  338,337;  335,185;  336,165
370,137;  373,747;  371,595;  373,975
370,214;  341,047;  340,246;  340,845
370,291;  351,388;  347,845;  351,965
370,368;  351,207;  345,426;  349,675
370,446;  336,508;  335,716;  337,375
370,523;  330,557;  331,586;  338,615
370,600;  355,188;  350,706;  356,355
370,677;  350,017;  345,826;  349,525
370,754;  340,547;  341,706;  344,655
370,831;  344,008;  344,885;  347,665
370,908;  369,228;  368,556;  369,945
370,985;  326,467;  326,206;  327,885
371,062;  348,948;  346,635;  347,955
371,139;  362,717;  362,125;  364,815
371,216;  357,328;  357,496;  359,475
371,293;  352,348;  350,576;  350,305
371,370;  330,818;  328,806;  332,395
371,447;  356,587;  354,736;  355,835
371,524;  371,837;  374,685;  378,505
371,601;  374,438;  371,556;  374,285
371,678;  375,487;  374,306;  375,345
371,755;  351,068;  348,526;  348,275
371,832;  372,517;  374,526;  377,175
371,909;  341,818;  342,065;  344,605
371,986;  379,078;  376,505;  379,065
372,063;  347,328;  346,195;  348,745
372,140;  358,367;  354,056;  357,495
372,216;  358,957;  360,225;  360,935
372,293;  344,228;  341,945;  344,805
372,370;  372,698;  370,236;  372,635
372,447;  359,258;  361,646;  361,385
372,524;  348,247;  349,725;  352,115
372,601;  357,297;  353,236;  356,005
372,677;  337,587;  339,586;  339,035
372,754;  348,987;  347,516;  350,955
372,831;  355,737;  354,716;  356,955
372,908;  368,908;  368,496;  364,795
372,984;  351,448;  349,246;  356,035
373,061;  341,807;  342,046;  342,845
373,138;  354,547;  349,986;  354,465
373,215;  349,457;  345,155;  346,585
373,291;  349,867;  347,556;  353,415
373,368;  355,487;  353,516;  357,375
373,445;  351,277;  348,285;  348,395
373,521;  349,807;  349,216;  353,935
373,598;  344,918;  341,766;  343,845
373,675;  335,677;  332,646;  334,115
373,751;  349,017;  345,375;  354,195
373,828;  344,397;  341,076;  346,375
373,904;  390,527;  387,225;  391,935
373,981;  332,987;  332,516;  333,585
374,057;  354,858;  353,306;  355,945
374,134;  330,967;  331,706;  334,435
374,211;  350,147;  348,826;  351,835
374,287;  335,487;  338,565;  339,035
374,364;  364,617;  362,426;  365,335
374,440;  320,487;  319,035;  321,205
374,517;  362,568;  361,625;  366,995
374,593;  327,867;  326,896;  326,865
374,670;  344,568;  340,095;  342,905
374,746;  351,057;  346,915;  349,135
374,823;  371,108;  369,255;  368,775
374,899;  369,797;  366,836;  366,475
374,975;  341,348;  336,035;  341,495
375,052;  325,367;  319,776;  326,175
375,128;  327,188;  325,956;  331,675
375,205;  357,888;  353,665;  355,605
375,281;  334,698;  337,296;  336,395
375,357;  365,348;  361,026;  364,245
375,434;  336,617;  331,986;  338,045
375,510;  351,128;  347,755;  353,175
375,586;  349,717;  347,486;  349,845
375,663;  323,397;  321,926;  323,515
375,739;  356,168;  355,716;  358,675
375,815;  346,027;  346,366;  346,765
375,892;  348,608;  344,516;  348,555
375,968;  337,658;  331,605;  336,855
376,044;  340,418;  335,866;  339,405
376,120;  335,207;  332,535;  339,615
376,197;  352,647;  348,466;  352,185
376,273;  343,717;  340,516;  341,095
376,349;  380,487;  378,366;  379,125
376,425;  364,938;  362,935;  364,425
376,501;  345,408;  344,225;  347,555
376,578;  362,897;  362,885;  363,255
376,654;  381,698;  383,866;  382,945
376,730;  362,647;  360,266;  364,005
376,806;  376,237;  375,185;  376,845
376,882;  375,848;  377,176;  378,355
376,958;  376,758;  376,706;  373,325
377,034;  318,427;  319,695;  317,895
377,111;  369,538;  368,826;  369,285
377,187;  393,717;  390,845;  391,825
377,263;  386,758;  383,885;  384,725
377,339;  346,587;  341,445;  346,375
377,415;  365,448;  366,366;  365,685
377,491;  346,237;  342,885;  347,505
377,567;  362,098;  359,755;  360,685
377,643;  377,758;  380,076;  378,785
377,719;  367,897;  363,706;  367,845
377,795;  346,927;  345,725;  349,165
377,871;  368,478;  367,866;  370,355
377,947;  354,128;  348,236;  351,215
378,023;  348,328;  345,855;  349,075
378,099;  350,198;  349,035;  350,465
378,174;  371,418;  374,176;  374,825
378,250;  364,557;  363,105;  366,955
378,326;  370,828;  366,255;  370,045
378,402;  359,547;  357,685;  360,315
378,478;  365,367;  361,605;  365,295
378,554;  373,797;  370,396;  375,075
378,630;  365,478;  365,225;  365,285
378,706;  358,457;  358,076;  357,335
378,781;  394,337;  390,875;  394,875
378,857;  367,068;  363,185;  366,505
378,933;  364,198;  360,315;  365,855
379,009;  350,918;  351,426;  351,035
379,085;  392,297;  393,826;  391,725
379,160;  376,647;  377,246;  378,485
379,236;  375,438;  374,195;  376,655
379,312;  362,638;  359,915;  361,725
379,387;  354,168;  354,486;  355,105
379,463;  362,997;  359,836;  363,685
379,539;  371,987;  370,475;  373,395
379,615;  359,677;  359,056;  358,495
379,690;  397,448;  395,035;  398,755
379,766;  378,207;  373,276;  379,335
379,842;  391,858;  391,105;  391,375
379,917;  388,737;  380,935;  388,225
379,993;  372,717;  368,366;  373,385
380,068;  363,237;  359,236;  361,755
380,144;  383,997;  381,086;  383,405
380,220;  385,957;  382,086;  386,535
380,295;  355,277;  353,005;  355,035
380,371;  359,957;  359,935;  361,545
380,446;  380,728;  377,165;  381,125
380,522;  349,957;  348,766;  349,425
380,597;  360,767;  360,486;  359,965
380,673;  395,388;  390,456;  394,425
380,748;  359,237;  358,046;  358,445
380,824;  372,057;  367,676;  369,935
380,899;  386,927;  386,216;  388,425
380,975;  367,747;  365,475;  366,905
381,050;  351,647;  352,806;  352,825
381,126;  372,647;  370,526;  373,695
381,201;  403,938;  398,806;  402,495
381,277;  375,038;  373,435;  374,795
381,352;  390,517;  388,105;  390,855
381,427;  376,807;  372,586;  376,025
381,503;  383,987;  378,896;  379,385
381,578;  366,418;  360,605;  365,515
381,653;  370,878;  368,776;  372,375
381,729;  360,288;  361,535;  360,945
381,804;  370,587;  367,475;  368,805
381,879;  384,487;  383,306;  386,055
381,955;  355,587;  354,396;  356,545
382,030;  358,168;  356,556;  357,225
382,105;  374,918;  375,586;  372,555
382,181;  370,547;  367,466;  371,255
382,256;  375,997;  378,116;  374,765
382,331;  373,747;  367,216;  371,745
382,406;  352,788;  353,266;  357,745
382,482;  361,878;  361,315;  357,655
382,557;  365,388;  363,526;  366,745
382,632;  371,358;  370,595;  371,585
382,707;  364,457;  361,135;  365,615
382,782;  368,328;  361,516;  366,275
382,857;  363,318;  358,996;  361,035
382,933;  354,578;  351,776;  352,995
383,008;  345,017;  344,065;  345,165
383,083;  380,177;  376,866;  379,215
383,158;  381,038;  378,866;  381,615
383,233;  364,188;  362,385;  363,105
383,308;  362,617;  359,875;  362,675
383,383;  389,967;  389,445;  391,785
383,458;  362,078;  361,135;  360,475
383,533;  346,818;  342,456;  344,625
383,608;  391,587;  387,885;  390,385
383,683;  387,207;  385,046;  389,585
383,758;  382,617;  380,285;  380,925
383,833;  368,527;  370,296;  371,015
383,908;  343,418;  343,206;  342,165
383,983;  346,878;  346,296;  350,755
384,058;  356,747;  355,246;  357,655
384,133;  369,848;  368,185;  368,575
384,208;  376,008;  376,796;  379,565
384,283;  350,217;  348,736;  351,825
384,358;  386,767;  381,845;  387,485
384,433;  361,367;  357,496;  357,355
384,508;  372,547;  368,966;  373,895
384,583;  375,587;  373,725;  375,265
384,658;  373,658;  367,915;  371,275
384,732;  341,767;  339,456;  339,705
384,807;  368,908;  366,935;  369,005
384,882;  373,198;  371,246;  373,145
384,957;  372,807;  368,095;  371,985
385,032;  374,997;  375,426;  376,555
385,106;  370,538;  370,216;  371,515
385,181;  356,908;  351,385;  357,155
385,256;  364,728;  363,565;  366,745
385,331;  378,038;  371,935;  373,255
385,405;  383,207;  380,975;  381,445
385,480;  367,128;  365,695;  366,715
385,555;  403,758;  399,306;  400,405
385,630;  391,128;  390,956;  395,935
385,704;  378,328;  374,056;  377,105
385,779;  365,538;  364,405;  364,855
385,854;  371,017;  368,746;  369,975
385,928;  365,677;  363,016;  365,315
386,003;  405,508;  402,586;  405,115
386,078;  375,888;  372,466;  374,995
386,152;  403,138;  401,456;  401,815
386,227;  360,547;  357,646;  361,225
386,301;  383,337;  378,725;  380,385
386,376;  354,328;  348,695;  355,015
386,450;  381,747;  378,616;  381,145
386,525;  376,087;  373,556;  377,655
386,600;  391,388;  385,746;  385,925
386,674;  366,598;  364,076;  367,315
386,749;  379,128;  375,095;  381,315
386,823;  381,408;  377,435;  382,095
386,898;  380,237;  379,766;  380,535
386,972;  386,967;  380,966;  385,985
387,047;  376,288;  369,776;  374,355
387,121;  383,087;  379,695;  380,335
387,195;  362,747;  357,875;  359,895
387,270;  388,207;  385,625;  385,415
387,344;  406,628;  404,405;  407,055
387,419;  390,547;  385,665;  393,195
387,493;  382,177;  377,776;  379,825
387,567;  356,517;  355,005;  358,475
387,642;  405,978;  403,586;  405,945
387,716;  374,617;  369,565;  372,245
387,790;  372,647;  367,706;  371,225
387,865;  375,247;  372,806;  373,715
387,939;  405,978;  403,005;  404,415
388,013;  384,777;  384,806;  386,145
388,088;  370,927;  368,655;  370,085
388,162;  372,478;  370,135;  371,835
388,236;  376,788;  372,456;  375,275
388,310;  363,438;  361,966;  364,475
388,385;  399,087;  397,185;  400,845
388,459;  378,487;  379,996;  380,235
388,533;  363,388;  363,676;  362,565
388,607;  366,188;  366,776;  365,955
388,682;  376,908;  374,806;  375,745
388,756;  359,517;  355,035;  360,825
388,830;  389,927;  390,255;  394,075
388,904;  382,267;  378,276;  385,365
388,978;  370,008;  369,535;  370,165
389,052;  377,608;  375,396;  377,225
389,126;  374,277;  370,435;  376,195
389,200;  376,318;  372,665;  377,205
389,275;  372,138;  369,266;  367,695
389,349;  378,828;  374,695;  373,065
389,423;  369,797;  369,565;  369,375
389,497;  384,797;  380,966;  383,775
389,571;  370,068;  368,665;  370,175
389,645;  377,538;  376,806;  379,805
389,719;  372,587;  369,396;  372,955
389,793;  347,427;  346,576;  348,725
389,867;  403,438;  398,035;  402,955
389,941;  380,358;  375,375;  377,215
390,015;  369,557;  361,135;  364,515
390,089;  363,788;  360,426;  362,085
390,163;  378,017;  372,456;  375,935
390,237;  377,228;  375,435;  379,295
390,310;  380,388;  379,276;  382,155
390,384;  382,297;  376,546;  383,625
390,458;  403,348;  400,826;  403,825
390,532;  388,647;  383,496;  386,725
390,606;  369,658;  365,945;  369,265
390,680;  369,128;  366,466;  368,115
390,754;  367,717;  366,385;  368,915
390,827;  390,717;  388,276;  392,645
390,901;  393,318;  391,855;  396,215
390,975;  372,318;  368,905;  370,295
391,049;  367,668;  366,366;  364,315
391,123;  364,747;  362,685;  363,545
391,196;  368,267;  367,635;  367,855
391,270;  378,147;  378,426;  377,835
391,344;  360,758;  360,056;  359,585
391,418;  369,788;  372,975;  372,155
391,491;  359,927;  362,655;  363,995
391,565;  366,158;  362,065;  366,105
391,639;  399,397;  394,345;  397,875
391,712;  387,318;  385,815;  384,375
391,786;  385,228;  382,646;  386,785
391,860;  370,897;  369,385;  370,925
391,933;  374,987;  369,935;  371,115
392,007;  375,747;  371,355;  380,875
392,081;  398,987;  396,456;  399,955
392,154;  381,328;  377,845;  383,895
392,228;  393,888;  391,366;  394,685
392,301;  379,908;  376,266;  381,275
392,375;  390,538;  386,076;  389,995
392,448;  380,608;  379,516;  384,445
392,522;  379,758;  376,236;  379,965
392,595;  370,647;  370,105;  374,245
392,669;  378,217;  376,116;  379,675
392,742;  396,138;  390,975;  396,915
392,816;  397,397;  397,296;  400,205
392,889;  396,608;  392,746;  396,605
392,963;  411,258;  409,095;  409,745
393,036;  385,427;  385,345;  386,785
393,110;  393,728;  391,155;  393,885
393,183;  405,967;  400,836;  405,685
393,257;  419,918;  415,456;  417,745
393,330;  369,818;  365,845;  369,745
393,403;  390,538;  390,486;  395,585
393,477;  354,568;  355,845;  358,875
393,550;  391,698;  390,306;  395,545
393,623;  388,608;  388,396;  388,295
393,697;  405,177;  406,056;  406,835
393,770;  378,348;  376,556;  379,065
393,843;  406,247;  402,996;  406,915
393,917;  399,068;  394,216;  398,485
393,990;  409,918;  409,996;  410,125
394,063;  390,527;  386,855;  392,225
394,136;  393,378;  388,635;  391,675
394,210;  391,897;  393,336;  395,655
394,283;  407,297;  402,785;  407,175
394,356;  398,108;  399,165;  399,175
394,429;  396,737;  396,935;  398,825
394,502;  386,078;  382,016;  383,895
394,576;  418,087;  414,125;  414,715
394,649;  379,777;  378,776;  377,865
394,722;  404,467;  400,896;  403,785
394,795;  410,318;  408,306;  413,185
394,868;  387,837;  384,135;  385,985
394,941;  375,837;  376,435;  375,265
395,014;  421,557;  417,056;  420,205
395,088;  398,897;  398,956;  399,175
395,161;  396,527;  395,466;  398,685
395,234;  407,617;  409,236;  410,735
395,307;  401,098;  402,236;  405,525
395,380;  388,418;  384,736;  385,325
395,453;  436,867;  436,845;  437,285
395,526;  411,878;  408,385;  412,495
395,599;  430,038;  426,926;  430,645
395,672;  393,047;  394,586;  394,895
395,745;  420,078;  417,125;  421,075
395,818;  379,927;  376,306;  378,615
395,891;  386,997;  385,635;  387,695
395,964;  416,818;  415,896;  414,885
396,036;  385,747;  387,486;  384,175
396,109;  394,367;  392,076;  395,785
396,182;  398,608;  396,766;  399,545
396,255;  398,487;  399,225;  398,845
396,328;  410,758;  410,065;  411,075
396,401;  370,918;  370,746;  371,295
396,474;  382,908;  381,086;  381,505
396,547;  401,358;  397,046;  400,645
396,619;  393,267;  390,755;  390,525
396,692;  410,568;  404,866;  411,355
396,765;  372,217;  370,616;  372,985
396,838;  389,568;  388,225;  388,295
396,911;  375,967;  371,266;  373,155
396,983;  394,957;  392,496;  392,385
397,056;  375,078;  372,355;  374,095
397,129;  390,747;  387,796;  389,615
397,201;  390,147;  391,556;  389,605
397,274;  388,688;  385,366;  389,335
397,347;  366,547;  363,345;  363,665
397,420;  385,017;  384,605;  387,195
397,492;  389,938;  388,296;  388,685
397,565;  380,967;  375,915;  379,595
397,637;  372,527;  369,366;  372,085
397,710;  353,457;  351,586;  350,295
397,783;  414,378;  412,855;  414,805
397,855;  348,168;  345,345;  347,055
397,928;  370,098;  368,336;  371,095
398,000;  397,177;  395,866;  396,635
398,073;  388,267;  386,546;  384,745
398,146;  376,247;  376,706;  377,295
398,218;  392,658;  390,255;  393,135
398,291;  388,427;  385,806;  387,915
398,363;  383,207;  381,755;  384,505
398,436;  373,608;  369,855;  374,675
398,508;  382,908;  383,266;  385,345
398,581;  379,147;  378,206;  380,565
398,653;  376,438;  374,255;  373,825
398,726;  379,568;  378,535;  383,385
398,798;  384,978;  383,306;  387,885
398,870;  393,698;  391,116;  396,905
398,943;  367,967;  366,236;  369,775
399,015;  365,557;  365,676;  368,815
399,088;  389,217;  389,655;  388,435
399,160;  367,767;  368,076;  368,815
399,232;  351,578;  350,405;  352,095
399,305;  370,087;  368,435;  372,935
399,377;  378,158;  377,905;  377,535
399,449;  387,668;  386,246;  388,735
399,522;  425,967;  421,875;  424,965
399,594;  365,487;  364,576;  365,315
399,666;  386,027;  382,625;  385,235
399,738;  374,297;  373,336;  375,225
399,811;  381,068;  376,736;  377,025
399,883;  388,747;  386,105;  388,295
399,955;  392,168;  389,855;  389,195
400,027;  348,457;  345,945;  349,545
400,100;  407,128;  407,366;  409,275
400,172;  346,807;  348,296;  349,645
400,244;  378,578;  378,225;  381,195
400,316;  395,487;  393,016;  393,505
400,388;  386,397;  389,385;  393,005
400,460;  364,427;  359,306;  364,605
400,532;  349,168;  350,826;  351,835
400,605;  381,568;  377,736;  384,975
400,677;  404,008;  402,285;  404,675
400,749;  397,267;  395,685;  398,125
400,821;  387,367;  385,956;  388,105
400,893;  376,878;  379,445;  382,305
400,965;  389,297;  386,755;  392,785
401,037;  387,158;  387,565;  392,525
401,109;  373,848;  370,725;  373,835
401,181;  381,098;  380,716;  385,485

