pru
Integration time [ms]:   0,150
Averaging Nr. [scans]: 100
Smoothing Nr. [pixels]: 0
Data measured with spectrometer [name]: 7416147SP
Wave   ;Sample   ;Dark     ;Reference
[nm]   ;[counts] ;[counts] ;[counts] 

230,218;  292,757;  290,315;  293,845
230,311;  318,357;  319,885;  318,565
230,404;  313,637;  309,855;  312,875
230,497;  320,677;  317,385;  315,715
230,591;  338,117;  333,426;  335,355
230,684;  327,507;  326,486;  329,355
230,777;  316,147;  311,736;  314,765
230,870;  315,917;  313,326;  316,955
230,964;  315,057;  310,885;  314,745
231,057;  341,807;  342,496;  343,475
231,150;  333,727;  331,695;  332,715
231,243;  332,287;  330,635;  332,775
231,336;  334,177;  331,375;  331,335
231,430;  319,767;  316,496;  317,715
231,523;  328,817;  324,516;  326,785
231,616;  309,567;  305,445;  309,685
231,709;  345,177;  328,065;  330,025
231,802;  318,587;  300,945;  301,885
231,895;  316,187;  299,836;  300,315
231,988;  327,837;  315,655;  318,535
232,082;  312,987;  298,155;  302,425
232,175;  316,917;  302,155;  306,175
232,268;  319,507;  301,266;  305,345
232,361;  318,307;  304,806;  307,515
232,454;  336,087;  322,396;  323,025
232,547;  334,477;  318,716;  322,655
232,640;  310,837;  296,766;  294,035
232,733;  333,687;  314,116;  323,045
232,826;  307,467;  288,915;  295,035
232,919;  330,497;  313,826;  312,665
233,012;  306,747;  293,646;  292,775
233,105;  312,697;  294,766;  298,815
233,199;  316,087;  299,875;  304,045
233,292;  309,607;  293,475;  296,235
233,385;  279,187;  263,426;  262,225
233,478;  310,957;  293,885;  295,685
233,571;  339,627;  324,586;  327,675
233,664;  321,187;  305,996;  308,435
233,757;  295,367;  280,796;  281,395
233,850;  298,427;  282,255;  285,825
233,943;  307,277;  290,896;  292,195
234,035;  319,677;  300,576;  302,355
234,128;  297,417;  281,836;  283,945
234,221;  314,727;  297,665;  298,245
234,314;  324,667;  304,915;  311,975
234,407;  325,117;  302,935;  309,075
234,500;  301,247;  277,625;  281,875
234,593;  304,967;  287,095;  285,735
234,686;  308,327;  293,746;  293,765
234,779;  308,617;  291,266;  293,165
234,872;  293,987;  281,806;  281,565
234,965;  306,157;  292,806;  290,795
235,058;  293,157;  274,155;  276,215
235,150;  308,987;  285,776;  290,805
235,243;  300,227;  282,736;  284,425
235,336;  320,157;  300,695;  304,545
235,429;  287,567;  273,646;  272,515
235,522;  347,827;  330,996;  335,445
235,615;  277,777;  262,276;  265,145
235,707;  295,297;  282,415;  282,335
235,800;  307,547;  289,815;  290,515
235,893;  306,917;  289,956;  292,955
235,986;  315,507;  298,266;  299,325
236,079;  305,347;  286,586;  291,125
236,171;  287,207;  270,725;  271,865
236,264;  327,627;  312,635;  313,275
236,357;  306,887;  290,986;  293,865
236,450;  328,237;  315,225;  317,215
236,542;  285,537;  267,065;  272,575
236,635;  328,817;  313,546;  316,385
236,728;  301,987;  285,516;  288,115
236,821;  297,027;  280,165;  283,715
236,913;  294,177;  277,896;  276,315
237,006;  284,967;  271,605;  275,435
237,099;  300,297;  283,896;  285,575
237,191;  319,457;  298,796;  300,225
237,284;  289,487;  267,896;  272,995
237,377;  310,857;  294,725;  297,495
237,470;  301,057;  285,415;  287,875
237,562;  293,477;  276,866;  275,785
237,655;  338,277;  320,945;  324,565
237,747;  308,707;  292,695;  295,845
237,840;  326,917;  313,086;  314,435
237,933;  314,837;  300,445;  301,555
238,025;  317,347;  301,415;  301,595
238,118;  304,197;  282,456;  287,755
238,211;  285,527;  268,155;  272,375
238,303;  287,717;  272,296;  273,415
238,396;  281,577;  268,065;  271,945
238,488;  304,287;  292,625;  291,075
238,581;  302,687;  287,855;  289,445
238,673;  304,607;  285,766;  286,865
238,766;  300,467;  282,635;  283,185
238,859;  289,367;  273,586;  276,105
238,951;  298,677;  281,095;  282,835
239,044;  293,037;  276,496;  279,525
239,136;  285,667;  269,035;  271,705
239,229;  295,797;  280,665;  283,435
239,321;  291,817;  271,255;  276,105
239,414;  311,017;  289,875;  292,345
239,506;  300,917;  284,625;  290,655
239,599;  333,807;  316,315;  315,935
239,691;  303,737;  287,945;  287,755
239,784;  320,087;  301,926;  304,175
239,876;  313,537;  295,005;  294,715
239,969;  304,597;  284,426;  288,635
240,061;  288,697;  269,505;  272,655
240,153;  295,077;  276,776;  278,405
240,246;  303,667;  287,635;  287,925
240,338;  329,507;  315,285;  314,405
240,431;  286,637;  268,896;  270,455
240,523;  285,257;  269,315;  270,665
240,615;  318,247;  299,086;  301,495
240,708;  327,107;  309,945;  312,145
240,800;  299,917;  286,956;  289,175
240,893;  291,797;  272,216;  274,965
240,985;  306,187;  286,116;  289,995
241,077;  286,347;  269,866;  271,905
241,170;  317,537;  300,355;  300,805
241,262;  306,677;  293,695;  290,825
241,354;  275,017;  252,305;  253,985
241,447;  299,467;  281,326;  283,905
241,539;  289,837;  266,746;  270,745
241,631;  335,287;  314,366;  317,275
241,724;  280,857;  259,135;  260,655
241,816;  301,547;  279,385;  281,545
241,908;  297,127;  275,056;  280,445
242,000;  297,357;  277,625;  279,505
242,093;  298,947;  277,725;  280,745
242,185;  294,497;  277,736;  277,535
242,277;  294,207;  274,695;  277,115
242,369;  302,407;  282,146;  286,335
242,462;  290,917;  274,405;  274,215
242,554;  297,587;  277,146;  281,105
242,646;  301,537;  283,146;  286,575
242,738;  323,367;  303,255;  307,195
242,830;  281,737;  259,026;  260,415
242,923;  316,147;  297,035;  299,015
243,015;  289,717;  268,655;  266,675
243,107;  286,167;  267,676;  271,255
243,199;  297,137;  276,345;  278,365
243,291;  289,707;  272,125;  276,215
243,383;  267,567;  254,826;  256,465
243,476;  280,347;  269,435;  268,005
243,568;  300,157;  280,915;  284,885
243,660;  293,527;  273,385;  279,575
243,752;  298,907;  279,796;  287,275
243,844;  316,187;  300,766;  302,705
243,936;  305,837;  291,956;  293,555
244,028;  321,217;  304,796;  307,475
244,120;  269,017;  254,346;  255,525
244,212;  308,747;  293,826;  293,755
244,305;  279,827;  268,496;  267,935
244,397;  308,137;  289,165;  291,675
244,489;  319,297;  304,276;  307,925
244,581;  314,397;  299,255;  300,795
244,673;  297,007;  281,806;  283,225
244,765;  304,207;  286,035;  290,565
244,857;  302,747;  284,986;  287,335
244,949;  301,767;  283,956;  284,945
245,041;  265,727;  250,865;  255,005
245,133;  310,327;  293,695;  296,625
245,225;  293,147;  277,915;  280,695
245,317;  304,687;  289,456;  289,025
245,409;  281,957;  263,755;  269,375
245,501;  304,567;  288,496;  293,045
245,593;  306,087;  286,255;  290,055
245,685;  302,257;  285,405;  288,735
245,776;  298,457;  285,945;  287,235
245,868;  283,427;  271,276;  272,565
245,960;  277,867;  265,875;  263,405
246,052;  321,687;  310,766;  310,445
246,144;  308,707;  294,165;  294,205
246,236;  293,207;  283,576;  283,565
246,328;  305,767;  291,345;  293,965
246,420;  295,517;  279,746;  280,855
246,512;  324,267;  308,236;  310,455
246,604;  300,127;  282,526;  286,825
246,695;  285,347;  273,345;  272,135
246,787;  312,547;  293,526;  301,145
246,879;  307,947;  292,716;  297,145
246,971;  313,637;  299,276;  300,965
247,063;  290,817;  273,255;  278,605
247,155;  311,137;  294,516;  297,195
247,246;  294,317;  283,266;  283,715
247,338;  305,337;  288,116;  294,265
247,430;  318,887;  299,945;  303,475
247,522;  312,077;  297,546;  300,555
247,613;  312,117;  296,586;  299,675
247,705;  308,237;  286,896;  288,445
247,797;  328,067;  305,776;  307,475
247,889;  323,277;  294,706;  295,475
247,980;  324,747;  285,676;  291,995
248,072;  330,487;  282,845;  285,895
248,164;  352,557;  293,216;  298,385
248,256;  305,257;  271,366;  274,105
248,347;  327,237;  309,785;  311,065
248,439;  295,707;  283,165;  282,675
248,531;  317,837;  303,885;  304,835
248,622;  323,757;  307,206;  308,325
248,714;  295,387;  276,945;  278,365
248,806;  312,377;  293,655;  298,015
248,897;  307,557;  291,535;  292,985
248,989;  281,487;  263,956;  263,855
249,081;  300,067;  283,355;  284,905
249,172;  309,207;  289,926;  295,135
249,264;  290,897;  272,076;  273,435
249,356;  287,937;  269,326;  273,745
249,447;  299,747;  282,176;  284,525
249,539;  298,217;  283,086;  284,645
249,630;  309,757;  289,875;  288,495
249,722;  336,267;  313,276;  315,395
249,813;  301,627;  280,496;  284,125
249,905;  310,337;  289,426;  293,665
249,997;  301,287;  281,445;  280,615
250,088;  305,617;  282,255;  288,985
250,180;  306,917;  283,695;  284,575
250,271;  306,027;  281,195;  280,335
250,363;  343,447;  319,105;  320,755
250,454;  298,247;  273,035;  275,615
250,546;  309,017;  285,926;  289,415
250,637;  282,157;  264,445;  261,845
250,729;  294,837;  266,505;  269,555
250,820;  314,337;  289,915;  292,965
250,912;  290,737;  262,355;  267,085
251,003;  305,617;  278,396;  280,475
251,095;  305,807;  282,086;  284,555
251,186;  296,047;  271,415;  274,775
251,277;  300,047;  271,986;  275,265
251,369;  302,347;  275,975;  275,105
251,460;  299,297;  271,456;  273,815
251,552;  313,757;  278,475;  279,655
251,643;  310,017;  268,796;  267,375
251,735;  308,237;  265,246;  267,375
251,826;  300,087;  258,016;  263,245
251,917;  328,617;  278,035;  279,115
252,009;  328,757;  273,396;  275,605
252,100;  336,127;  281,426;  283,345
252,191;  355,817;  289,996;  292,015
252,283;  342,937;  265,095;  267,705
252,374;  368,347;  278,296;  278,375
252,465;  392,347;  295,405;  298,605
252,557;  395,867;  283,576;  286,365
252,648;  393,007;  265,146;  268,635
252,739;  423,307;  280,516;  282,125
252,831;  422,477;  270,836;  280,355
252,922;  459,177;  282,296;  280,045
253,013;  511,477;  273,956;  284,285
253,104;  572,167;  270,076;  270,335
253,196;  679,227;  271,366;  271,175
253,287;  837,227;  281,836;  277,135
253,378; 1227,517;  276,276;  277,975
253,469; 3790,827;  272,385;  276,445
253,561;21469,287;  273,496;  278,855
253,652;42734,188;  282,266;  280,015
253,743; 6303,397;  276,216;  280,985
253,834;  620,407;  259,146;  265,875
253,926;  498,697;  262,605;  267,485
254,017;  478,477;  284,236;  290,235
254,108;  451,937;  291,836;  290,565
254,199;  428,357;  285,326;  291,185
254,290;  432,177;  312,725;  313,865
254,381;  413,677;  287,076;  291,155
254,472;  415,247;  291,935;  300,495
254,564;  414,167;  312,766;  307,565
254,655;  390,937;  304,755;  308,105
254,746;  348,897;  264,896;  264,025
254,837;  380,947;  293,105;  298,435
254,928;  357,767;  266,836;  271,975
255,019;  365,807;  283,505;  286,805
255,110;  372,287;  300,165;  301,665
255,201;  355,847;  281,155;  287,655
255,292;  377,767;  312,706;  316,275
255,383;  351,167;  275,785;  275,725
255,474;  341,457;  273,306;  273,095
255,566;  350,437;  283,926;  286,645
255,657;  346,647;  298,556;  302,445
255,748;  317,287;  271,415;  278,125
255,839;  323,897;  280,695;  282,485
255,930;  330,427;  287,866;  289,735
256,021;  335,537;  298,845;  298,115
256,112;  320,607;  278,456;  278,735
256,203;  348,877;  311,866;  313,365
256,294;  330,117;  293,496;  299,575
256,384;  312,117;  270,565;  275,715
256,475;  317,987;  290,996;  294,595
256,566;  311,667;  281,246;  287,825
256,657;  301,997;  278,945;  278,915
256,748;  304,087;  281,285;  284,675
256,839;  294,577;  274,426;  273,555
256,930;  303,347;  279,165;  283,055
257,021;  324,267;  304,155;  306,465
257,112;  325,717;  304,926;  309,235
257,203;  280,257;  258,445;  259,825
257,294;  276,417;  254,465;  262,175
257,385;  307,417;  288,526;  294,205
257,475;  298,667;  279,135;  278,545
257,566;  307,907;  287,586;  292,255
257,657;  293,777;  269,595;  270,025
257,748;  291,407;  275,935;  276,095
257,839;  299,237;  287,915;  286,025
257,930;  303,417;  285,736;  290,395
258,020;  283,967;  269,716;  271,535
258,111;  278,827;  262,225;  263,255
258,202;  301,227;  288,326;  289,935
258,293;  297,857;  284,655;  285,305
258,384;  317,527;  305,595;  307,665
258,474;  304,967;  288,676;  291,995
258,565;  281,307;  271,635;  273,435
258,656;  303,197;  292,966;  295,145
258,747;  286,357;  271,475;  275,425
258,837;  288,187;  274,246;  273,695
258,928;  293,687;  275,785;  278,605
259,019;  282,777;  268,415;  270,595
259,109;  283,757;  269,685;  269,425
259,200;  300,187;  286,105;  289,815
259,291;  284,967;  269,975;  271,655
259,381;  302,177;  293,026;  295,635
259,472;  307,847;  295,796;  296,545
259,563;  316,087;  303,065;  305,845
259,653;  290,877;  278,296;  281,385
259,744;  278,217;  268,826;  267,735
259,835;  312,327;  300,975;  302,815
259,925;  285,937;  271,505;  277,075
260,016;  296,397;  286,746;  287,585
260,107;  270,907;  258,035;  264,715
260,197;  294,367;  283,975;  286,325
260,288;  290,147;  274,565;  279,155
260,378;  280,557;  267,195;  271,275
260,469;  299,297;  285,915;  288,765
260,560;  278,727;  266,146;  269,495
260,650;  278,727;  271,736;  275,665
260,741;  288,507;  276,366;  279,035
260,831;  283,017;  272,855;  275,905
260,922;  275,507;  266,206;  269,545
261,012;  282,077;  277,665;  278,255
261,103;  309,787;  301,785;  302,875
261,193;  308,937;  302,086;  303,915
261,284;  279,547;  271,806;  273,005
261,374;  307,157;  296,385;  303,855
261,465;  299,037;  287,755;  289,435
261,555;  287,017;  282,255;  280,715
261,646;  299,917;  292,475;  294,375
261,736;  300,427;  287,435;  290,535
261,827;  290,677;  283,716;  284,935
261,917;  319,197;  311,736;  311,595
262,007;  292,957;  283,986;  288,075
262,098;  293,857;  289,445;  287,725
262,188;  336,787;  326,655;  333,475
262,279;  309,667;  300,185;  299,795
262,369;  296,787;  286,285;  289,225
262,459;  296,047;  288,246;  290,365
262,550;  313,137;  303,266;  301,565
262,640;  283,407;  273,005;  276,555
262,731;  306,147;  300,935;  299,335
262,821;  320,127;  310,535;  312,255
262,911;  307,057;  297,875;  298,285
263,002;  296,987;  289,625;  290,825
263,092;  312,547;  303,956;  306,295
263,182;  291,927;  284,806;  285,755
263,273;  293,947;  285,426;  289,395
263,363;  304,367;  300,746;  299,385
263,453;  273,097;  267,375;  268,605
263,543;  293,807;  289,815;  289,615
263,634;  274,597;  266,516;  266,365
263,724;  299,467;  292,586;  293,065
263,814;  311,977;  308,706;  308,885
263,904;  290,117;  281,966;  285,905
263,995;  331,187;  322,276;  322,325
264,085;  299,477;  295,855;  294,575
264,175;  301,387;  296,706;  296,385
264,265;  327,867;  321,105;  321,865
264,356;  279,087;  270,466;  274,385
264,446;  314,337;  308,996;  307,575
264,536;  302,047;  294,026;  297,515
264,626;  327,157;  318,486;  320,175
264,716;  308,257;  298,435;  303,275
264,806;  317,667;  308,776;  310,415
264,897;  265,947;  258,135;  258,615
264,987;  311,897;  303,535;  304,475
265,077;  315,317;  287,046;  292,545
265,167;  374,247;  310,216;  311,575
265,257;  340,237;  290,445;  290,535
265,347;  335,317;  294,336;  295,795
265,437;  324,127;  296,176;  300,635
265,527;  320,437;  293,155;  294,765
265,617;  290,687;  279,875;  285,145
265,708;  324,187;  314,216;  314,825
265,798;  314,907;  305,415;  307,055
265,888;  312,017;  300,716;  305,545
265,978;  296,137;  294,496;  295,825
266,068;  318,897;  310,155;  315,855
266,158;  301,167;  294,005;  297,205
266,248;  278,997;  274,016;  276,865
266,338;  320,687;  313,035;  314,815
266,428;  306,807;  300,635;  302,655
266,518;  319,337;  311,405;  315,615
266,608;  303,147;  299,725;  294,215
266,698;  277,817;  273,586;  276,245
266,788;  280,757;  274,456;  277,745
266,878;  337,607;  325,776;  330,865
266,968;  312,397;  306,725;  309,425
267,058;  305,507;  297,375;  302,895
267,147;  310,837;  301,845;  302,905
267,237;  299,897;  291,815;  295,765
267,327;  293,057;  286,755;  287,895
267,417;  308,457;  301,225;  303,385
267,507;  298,697;  292,176;  294,215
267,597;  287,607;  282,026;  283,655
267,687;  292,217;  285,165;  287,755
267,777;  291,107;  283,986;  284,615
267,867;  319,167;  312,125;  312,585
267,956;  309,347;  302,466;  304,005
268,046;  312,927;  305,466;  310,865
268,136;  304,847;  296,875;  298,905
268,226;  282,237;  274,885;  274,965
268,316;  285,627;  280,766;  280,845
268,406;  297,297;  289,516;  287,595
268,495;  288,777;  284,415;  287,935
268,585;  313,197;  306,716;  309,605
268,675;  293,227;  284,336;  285,535
268,765;  305,077;  296,355;  300,115
268,854;  292,537;  285,935;  286,715
268,944;  299,457;  291,646;  293,805
269,034;  292,247;  283,986;  289,715
269,124;  293,827;  287,216;  290,705
269,213;  294,057;  286,336;  285,525
269,303;  296,487;  290,466;  288,585
269,393;  307,797;  299,845;  298,345
269,483;  307,477;  300,966;  302,735
269,572;  290,367;  282,875;  284,665
269,662;  286,757;  276,105;  283,315
269,752;  315,987;  312,736;  315,705
269,841;  278,077;  266,046;  269,455
269,931;  289,107;  281,586;  283,075
270,021;  305,957;  300,766;  304,675
270,110;  291,917;  285,695;  288,925
270,200;  301,687;  291,665;  299,445
270,289;  283,817;  280,785;  281,105
270,379;  310,107;  301,466;  302,775
270,469;  296,157;  290,556;  289,955
270,558;  308,987;  303,655;  302,185
270,648;  290,267;  282,785;  284,885
270,737;  298,717;  288,526;  291,525
270,827;  314,257;  310,185;  313,455
270,916;  293,787;  286,935;  289,915
271,006;  295,167;  293,475;  292,885
271,096;  324,167;  317,005;  317,215
271,185;  295,197;  289,896;  289,145
271,275;  309,177;  300,706;  303,575
271,364;  287,307;  281,535;  285,725
271,454;  318,977;  308,255;  315,275
271,543;  302,337;  296,935;  297,745
271,633;  294,597;  293,926;  292,835
271,722;  298,407;  292,255;  296,455
271,812;  293,227;  286,296;  289,275
271,901;  300,387;  292,326;  293,765
271,990;  295,447;  291,836;  290,915
272,080;  298,457;  290,635;  294,915
272,169;  305,497;  301,905;  302,555
272,259;  300,517;  293,225;  292,695
272,348;  310,647;  305,796;  308,535
272,438;  299,647;  296,935;  293,635
272,527;  306,107;  303,996;  304,365
272,616;  311,237;  301,866;  305,295
272,706;  329,077;  320,935;  323,195
272,795;  320,427;  314,076;  315,755
272,884;  302,977;  297,076;  299,515
272,974;  326,787;  317,975;  319,965
273,063;  337,127;  338,206;  337,765
273,152;  313,627;  310,306;  307,735
273,242;  326,447;  320,276;  324,915
273,331;  326,377;  319,315;  322,835
273,420;  309,097;  301,105;  310,255
273,510;  312,777;  307,355;  308,155
273,599;  307,627;  303,255;  306,195
273,688;  306,307;  302,605;  301,885
273,778;  288,567;  285,065;  287,095
273,867;  321,247;  320,266;  317,015
273,956;  310,497;  303,725;  303,805
274,045;  279,327;  273,966;  275,965
274,135;  308,787;  303,905;  305,375
274,224;  298,087;  286,516;  290,045
274,313;  310,347;  305,586;  307,745
274,402;  290,227;  284,796;  287,085
274,491;  315,727;  310,975;  312,995
274,581;  308,467;  301,415;  302,765
274,670;  297,587;  293,146;  294,385
274,759;  303,697;  299,405;  300,435
274,848;  282,717;  276,655;  279,925
274,937;  295,847;  289,945;  287,635
275,026;  291,917;  285,616;  287,835
275,116;  324,607;  316,415;  315,805
275,205;  295,617;  266,926;  271,135
275,294;  333,367;  302,315;  304,335
275,383;  306,687;  299,905;  297,985
275,472;  293,007;  290,005;  290,825
275,561;  296,827;  290,505;  290,285
275,650;  313,867;  306,046;  306,435
275,739;  299,447;  294,776;  297,985
275,828;  279,757;  274,635;  277,965
275,917;  313,887;  312,065;  306,825
276,006;  303,697;  295,426;  296,835
276,095;  301,237;  294,526;  298,665
276,184;  310,567;  309,556;  307,945
276,273;  307,797;  303,105;  304,505
276,362;  281,097;  275,896;  278,535
276,451;  295,897;  291,306;  291,915
276,540;  302,197;  295,896;  296,105
276,629;  295,617;  292,576;  293,225
276,718;  275,367;  270,695;  274,545
276,807;  278,887;  271,625;  274,825
276,896;  288,557;  280,526;  284,495
276,985;  290,257;  283,616;  289,365
277,074;  304,967;  299,105;  300,525
277,163;  299,127;  294,746;  299,085
277,252;  280,507;  279,646;  276,465
277,341;  290,077;  281,236;  289,265
277,430;  282,007;  276,845;  279,355
277,519;  304,037;  298,956;  301,695
277,608;  270,897;  266,546;  267,775
277,696;  273,317;  266,975;  269,445
277,785;  285,407;  284,095;  283,485
277,874;  304,117;  299,605;  296,795
277,963;  297,967;  288,155;  289,995
278,052;  270,937;  264,776;  265,525
278,141;  295,977;  288,415;  290,745
278,229;  296,757;  290,146;  291,935
278,318;  273,497;  268,236;  271,495
278,407;  290,847;  285,576;  285,935
278,496;  294,597;  289,915;  291,965
278,585;  305,217;  300,486;  302,275
278,673;  273,067;  263,836;  266,715
278,762;  272,447;  266,176;  270,485
278,851;  293,677;  285,496;  286,035
278,940;  308,387;  303,685;  303,305
279,028;  302,357;  296,306;  299,585
279,117;  290,687;  282,725;  286,655
279,206;  285,887;  279,475;  284,105
279,294;  288,307;  284,396;  286,665
279,383;  295,617;  286,646;  287,335
279,472;  302,287;  298,095;  298,295
279,561;  287,857;  283,355;  284,975
279,649;  314,707;  308,535;  308,935
279,738;  263,187;  255,566;  255,215
279,827;  313,557;  306,785;  308,805
279,915;  279,467;  275,285;  276,335
280,004;  293,647;  286,565;  288,905
280,092;  314,077;  305,236;  306,635
280,181;  291,927;  280,516;  282,605
280,270;  294,197;  277,866;  281,595
280,358;  308,747;  291,366;  288,915
280,447;  271,837;  261,415;  264,455
280,535;  286,257;  276,016;  275,945
280,624;  284,657;  274,185;  276,805
280,713;  289,007;  277,146;  283,385
280,801;  302,417;  293,116;  293,805
280,890;  294,137;  289,716;  295,475
280,978;  286,747;  280,755;  281,945
281,067;  259,467;  250,676;  255,865
281,155;  283,337;  274,855;  275,705
281,244;  323,227;  313,595;  316,445
281,332;  300,387;  290,845;  293,825
281,421;  277,977;  271,605;  273,675
281,509;  290,447;  284,646;  282,415
281,598;  265,147;  262,435;  263,765
281,686;  295,257;  290,776;  288,945
281,775;  292,997;  285,516;  290,815
281,863;  286,217;  278,016;  279,225
281,951;  279,637;  267,665;  270,735
282,040;  314,817;  300,315;  301,115
282,128;  304,917;  288,375;  294,235
282,217;  278,947;  265,926;  266,075
282,305;  304,407;  294,796;  294,045
282,393;  293,627;  286,505;  284,595
282,482;  290,097;  279,535;  283,255
282,570;  281,907;  266,945;  270,215
282,658;  290,267;  276,116;  277,715
282,747;  279,257;  265,026;  267,905
282,835;  317,457;  306,076;  309,035
282,923;  272,657;  264,655;  267,805
283,012;  299,807;  291,366;  296,345
283,100;  279,137;  269,185;  274,675
283,188;  268,217;  261,125;  262,525
283,277;  290,017;  284,336;  284,745
283,365;  278,897;  271,676;  278,375
283,453;  270,177;  264,755;  270,455
283,542;  298,497;  290,896;  293,765
283,630;  284,757;  276,195;  278,595
283,718;  278,387;  271,195;  274,365
283,806;  251,287;  241,706;  247,485
283,894;  278,797;  274,336;  274,395
283,983;  288,197;  282,165;  282,605
284,071;  293,417;  285,285;  291,495
284,159;  314,367;  309,125;  314,805
284,247;  296,967;  287,466;  288,555
284,335;  293,347;  286,935;  287,485
284,424;  291,027;  283,915;  288,465
284,512;  290,697;  283,475;  286,175
284,600;  284,497;  279,415;  280,145
284,688;  318,537;  312,815;  317,115
284,776;  294,467;  286,815;  287,745
284,864;  313,427;  302,125;  308,655
284,952;  298,727;  289,625;  289,025
285,041;  301,577;  298,255;  298,145
285,129;  307,657;  299,435;  302,445
285,217;  307,327;  300,056;  303,885
285,305;  322,677;  318,676;  319,885
285,393;  280,417;  275,776;  278,695
285,481;  299,617;  296,665;  298,405
285,569;  288,997;  282,966;  285,145
285,657;  301,547;  295,165;  296,255
285,745;  295,227;  292,655;  293,125
285,833;  298,117;  289,505;  293,165
285,921;  305,927;  298,116;  300,945
286,009;  310,307;  301,105;  303,655
286,097;  304,167;  298,236;  301,315
286,185;  288,847;  284,405;  284,795
286,273;  284,947;  283,415;  284,655
286,361;  315,777;  307,915;  311,825
286,449;  301,827;  296,195;  294,565
286,537;  307,787;  304,105;  302,085
286,625;  295,027;  291,185;  293,415
286,713;  283,207;  275,806;  280,315
286,801;  316,147;  312,076;  307,795
286,889;  323,547;  319,435;  320,055
286,976;  291,347;  287,905;  291,205
287,064;  312,747;  307,635;  311,875
287,152;  308,737;  303,576;  305,585
287,240;  313,317;  309,185;  308,845
287,328;  291,097;  287,685;  281,755
287,416;  295,707;  290,975;  292,385
287,504;  301,997;  294,435;  298,285
287,591;  307,307;  298,176;  300,225
287,679;  290,227;  286,095;  286,145
287,767;  303,297;  298,206;  296,985
287,855;  310,397;  303,736;  307,515
287,943;  315,277;  306,716;  309,435
288,030;  296,827;  293,456;  291,795
288,118;  321,677;  318,255;  318,995
288,206;  282,277;  274,956;  275,705
288,294;  309,427;  301,986;  304,135
288,382;  310,417;  300,776;  303,615
288,469;  311,037;  304,396;  308,895
288,557;  298,447;  294,095;  292,615
288,645;  327,857;  323,396;  323,315
288,732;  280,677;  278,915;  279,235
288,820;  307,917;  304,576;  306,785
288,908;  307,237;  304,826;  303,915
288,995;  318,637;  310,945;  310,305
289,083;  300,167;  293,026;  292,935
289,171;  331,447;  320,165;  325,565
289,258;  375,267;  322,176;  324,305
289,346;  435,567;  326,266;  329,365
289,434;  317,337;  303,435;  306,185
289,521;  288,167;  280,415;  286,295
289,609;  326,757;  320,426;  325,405
289,697;  319,657;  312,336;  315,125
289,784;  300,007;  295,445;  295,775
289,872;  314,407;  306,905;  313,015
289,959;  286,927;  282,375;  283,415
290,047;  303,017;  296,546;  300,865
290,134;  276,657;  272,665;  273,815
290,222;  315,777;  308,915;  308,665
290,310;  311,497;  304,905;  307,145
290,397;  336,017;  328,505;  332,835
290,485;  293,477;  290,815;  293,005
290,572;  319,577;  313,225;  314,645
290,660;  308,477;  306,385;  306,205
290,747;  297,327;  295,165;  292,775
290,835;  304,317;  299,016;  302,505
290,922;  308,177;  304,016;  305,515
291,009;  307,747;  297,676;  301,715
291,097;  303,207;  297,926;  300,755
291,184;  339,407;  332,716;  338,585
291,272;  288,337;  282,966;  288,375
291,359;  287,487;  283,915;  289,305
291,447;  309,957;  303,086;  304,735
291,534;  330,947;  327,326;  323,005
291,621;  305,337;  302,845;  301,105
291,709;  288,137;  285,716;  283,705
291,796;  319,067;  320,146;  316,555
291,884;  297,727;  291,466;  296,115
291,971;  323,087;  315,065;  320,295
292,058;  294,867;  288,725;  288,985
292,146;  300,607;  293,746;  297,955
292,233;  288,357;  285,426;  284,765
292,320;  299,017;  294,306;  297,685
292,408;  316,137;  309,086;  308,565
292,495;  303,877;  290,565;  293,085
292,582;  294,177;  286,845;  287,375
292,669;  285,487;  281,415;  286,055
292,757;  286,017;  282,176;  283,865
292,844;  316,237;  312,935;  313,175
292,931;  283,997;  275,176;  277,485
293,018;  297,387;  291,516;  289,915
293,106;  305,207;  299,966;  303,035
293,193;  276,907;  272,415;  274,385
293,280;  303,377;  297,255;  303,635
293,367;  298,347;  296,956;  295,215
293,455;  297,347;  293,185;  294,155
293,542;  284,147;  275,695;  281,445
293,629;  284,177;  279,035;  281,855
293,716;  313,657;  305,646;  311,195
293,803;  293,607;  287,105;  287,695
293,890;  317,587;  310,336;  312,555
293,978;  294,657;  284,105;  290,755
294,065;  288,997;  286,725;  284,345
294,152;  307,487;  302,385;  304,355
294,239;  280,107;  275,646;  274,625
294,326;  291,187;  286,746;  290,635
294,413;  283,977;  278,046;  278,465
294,500;  295,657;  292,586;  295,255
294,587;  288,147;  283,915;  287,195
294,674;  309,997;  305,875;  306,925
294,761;  294,477;  288,896;  287,945
294,848;  291,847;  286,866;  294,115
294,935;  296,027;  290,746;  290,555
295,022;  277,767;  272,396;  274,105
295,109;  264,687;  258,466;  262,665
295,196;  293,567;  291,405;  295,265
295,283;  284,457;  281,176;  278,745
295,370;  316,357;  308,975;  312,155
295,457;  295,087;  289,986;  290,435
295,544;  288,887;  285,105;  287,985
295,631;  297,207;  290,165;  295,805
295,718;  275,097;  272,676;  274,015
295,805;  299,687;  296,225;  296,685
295,892;  306,137;  300,005;  304,445
295,979;  298,307;  291,266;  292,755
296,066;  301,017;  293,996;  296,145
296,153;  306,047;  296,026;  296,355
296,240;  309,447;  299,206;  300,535
296,327;  299,247;  285,206;  285,615
296,413;  322,887;  301,285;  305,075
296,500;  339,057;  302,755;  305,145
296,587;  511,037;  288,616;  286,065
296,674; 1645,297;  294,396;  297,335
296,761;  810,077;  300,095;  298,245
296,848;  304,907;  281,956;  285,815
296,934;  301,287;  290,966;  295,265
297,021;  298,517;  292,565;  292,975
297,108;  286,957;  276,366;  280,895
297,195;  297,807;  291,466;  294,705
297,282;  295,267;  286,535;  286,195
297,368;  312,577;  310,026;  305,975
297,455;  285,587;  279,155;  283,145
297,542;  318,747;  311,375;  313,235
297,629;  303,427;  299,016;  300,205
297,715;  315,937;  308,285;  310,385
297,802;  307,667;  300,466;  303,285
297,889;  316,967;  311,716;  313,025
297,975;  328,207;  322,836;  323,685
298,062;  320,647;  310,505;  312,995
298,149;  282,937;  273,505;  274,905
298,235;  299,707;  291,135;  294,075
298,322;  302,557;  294,806;  292,785
298,409;  317,527;  311,195;  312,715
298,495;  288,447;  285,435;  283,435
298,582;  311,547;  307,516;  308,065
298,669;  297,757;  290,526;  294,245
298,755;  302,867;  299,065;  302,235
298,842;  309,927;  304,755;  309,095
298,928;  307,697;  303,855;  304,595
299,015;  297,167;  294,896;  296,705
299,102;  324,037;  318,986;  320,565
299,188;  320,927;  315,956;  316,045
299,275;  315,137;  309,926;  309,365
299,361;  282,657;  278,875;  281,665
299,448;  312,917;  312,466;  310,885
299,534;  316,587;  312,355;  312,735
299,621;  310,327;  304,655;  303,865
299,707;  307,677;  299,016;  304,675
299,794;  323,397;  319,885;  319,685
299,880;  323,707;  317,076;  318,325
299,967;  305,397;  296,345;  296,295
300,053;  301,687;  295,935;  299,065
300,140;  329,577;  323,086;  328,875
300,226;  316,427;  313,885;  313,595
300,312;  310,447;  307,276;  306,695
300,399;  311,637;  305,505;  308,465
300,485;  301,247;  297,776;  301,725
300,572;  283,687;  281,655;  281,655
300,658;  296,037;  297,216;  294,585
300,744;  312,397;  310,706;  311,315
300,831;  320,377;  313,595;  318,275
300,917;  323,377;  321,676;  320,915
301,004;  314,907;  311,556;  311,015
301,090;  284,327;  277,785;  280,095
301,176;  291,467;  284,255;  288,205
301,263;  318,457;  313,676;  314,925
301,349;  296,247;  289,475;  293,305
301,435;  286,247;  284,276;  285,095
301,521;  321,847;  314,625;  313,245
301,608;  321,577;  314,695;  315,515
301,694;  302,647;  297,896;  300,535
301,780;  309,877;  303,046;  298,285
301,867;  292,297;  280,836;  285,265
301,953;  313,187;  296,595;  301,165
302,039;  380,647;  295,116;  297,515
302,125;  543,767;  298,445;  304,125
302,211;  363,537;  332,926;  334,115
302,298;  355,177;  301,926;  305,295
302,384;  300,237;  281,116;  287,095
302,470;  298,637;  289,505;  291,305
302,556;  311,657;  301,935;  305,645
302,642;  301,307;  293,456;  295,155
302,729;  299,907;  289,306;  293,525
302,815;  317,917;  317,966;  319,775
302,901;  299,467;  296,475;  298,745
302,987;  313,367;  307,716;  308,245
303,073;  304,967;  304,185;  302,795
303,159;  300,087;  296,945;  298,695
303,245;  291,137;  284,336;  290,495
303,331;  290,017;  283,486;  286,455
303,417;  299,807;  294,556;  296,145
303,503;  315,467;  310,046;  312,155
303,590;  292,017;  289,146;  291,705
303,676;  304,107;  299,505;  300,385
303,762;  290,917;  287,185;  287,835
303,848;  317,337;  311,026;  312,055
303,934;  310,847;  304,915;  307,775
304,020;  307,247;  301,796;  304,745
304,106;  315,767;  309,975;  314,015
304,192;  302,227;  291,796;  296,765
304,278;  308,607;  302,896;  304,455
304,364;  330,717;  323,026;  324,755
304,450;  310,217;  301,496;  304,095
304,535;  305,587;  304,005;  304,245
304,621;  309,427;  301,565;  302,205
304,707;  310,477;  306,296;  307,635
304,793;  322,637;  318,625;  318,575
304,879;  311,237;  306,776;  310,585
304,965;  318,887;  312,845;  313,365
305,051;  313,737;  308,616;  311,355
305,137;  324,487;  318,146;  324,235
305,223;  294,607;  291,445;  293,725
305,309;  320,137;  313,496;  317,755
305,394;  313,267;  311,996;  311,465
305,480;  307,797;  299,426;  304,775
305,566;  312,337;  309,355;  310,525
305,652;  317,087;  313,605;  317,885
305,738;  351,897;  349,206;  353,435
305,824;  315,917;  316,016;  315,095
305,909;  327,047;  323,815;  325,155
305,995;  292,227;  289,595;  290,025
306,081;  352,597;  348,345;  350,435
306,167;  309,677;  303,966;  307,875
306,252;  327,127;  324,375;  325,505
306,338;  337,027;  331,366;  335,515
306,424;  310,777;  306,595;  307,415
306,510;  320,387;  316,105;  319,795
306,595;  325,977;  323,685;  322,125
306,681;  320,027;  316,926;  318,895
306,767;  311,007;  305,336;  309,425
306,852;  335,927;  328,255;  331,375
306,938;  328,837;  325,796;  325,905
307,024;  307,087;  302,875;  304,755
307,109;  342,417;  336,065;  338,965
307,195;  318,157;  316,326;  318,385
307,281;  320,397;  318,716;  318,575
307,366;  315,767;  313,345;  310,455
307,452;  320,457;  312,426;  316,335
307,537;  299,617;  296,776;  298,485
307,623;  298,957;  292,105;  296,985
307,709;  311,977;  309,885;  310,795
307,794;  290,877;  288,576;  291,835
307,880;  323,327;  320,236;  319,735
307,965;  313,697;  307,456;  307,525
308,051;  298,667;  297,195;  298,065
308,136;  299,897;  297,165;  296,745
308,222;  304,947;  300,366;  302,045
308,307;  301,557;  295,116;  296,645
308,393;  298,817;  295,535;  300,335
308,478;  324,667;  321,826;  318,975
308,564;  292,427;  295,516;  288,925
308,649;  308,837;  308,496;  308,295
308,735;  306,607;  294,155;  300,535
308,820;  319,087;  320,655;  319,455
308,906;  299,337;  291,625;  300,515
308,991;  342,067;  341,076;  338,375
309,076;  320,577;  319,336;  320,645
309,162;  285,587;  283,945;  283,805
309,247;  311,707;  309,945;  308,415
309,333;  298,477;  291,646;  297,855
309,418;  305,197;  298,665;  301,955
309,503;  302,187;  297,646;  300,235
309,589;  305,017;  303,725;  305,345
309,674;  295,457;  290,945;  289,235
309,759;  308,187;  303,315;  304,195
309,845;  320,697;  311,016;  312,415
309,930;  312,907;  305,966;  307,375
310,015;  281,947;  276,095;  276,835
310,101;  320,107;  315,616;  319,905
310,186;  289,167;  285,426;  288,565
310,271;  302,297;  297,296;  298,295
310,357;  301,457;  297,526;  296,455
310,442;  309,807;  302,445;  303,865
310,527;  304,457;  297,766;  301,125
310,612;  281,517;  278,195;  281,425
310,698;  320,977;  319,725;  321,135
310,783;  306,357;  301,176;  302,685
310,868;  297,357;  294,285;  295,125
310,953;  289,267;  284,165;  285,195
311,038;  313,887;  311,146;  310,075
311,124;  298,617;  294,635;  290,925
311,209;  284,417;  276,736;  277,355
311,294;  316,367;  310,206;  312,575
311,379;  281,837;  276,785;  277,345
311,464;  304,617;  297,405;  297,635
311,549;  293,577;  282,385;  284,505
311,634;  293,877;  290,396;  286,805
311,719;  324,437;  316,016;  315,415
311,805;  296,107;  289,266;  291,605
311,890;  306,037;  295,165;  295,925
311,975;  295,227;  281,526;  286,055
312,060;  311,257;  298,146;  302,435
312,145;  295,447;  277,586;  276,025
312,230;  317,587;  290,815;  296,495
312,315;  333,477;  294,065;  296,045
312,400;  406,817;  296,396;  299,795
312,485; 1566,697;  290,535;  292,475
312,570; 1267,547;  277,125;  279,615
312,655;  352,277;  308,176;  313,325
312,740;  331,517;  301,616;  302,005
312,825;  341,147;  304,105;  307,725
312,910;  360,447;  307,736;  309,235
312,995;  441,317;  296,236;  298,245
313,080; 1946,467;  285,655;  286,805
313,165; 2196,237;  303,565;  305,305
313,250;  371,057;  287,276;  287,825
313,335;  330,717;  307,435;  312,125
313,419;  284,527;  267,466;  268,635
313,504;  325,917;  313,355;  315,225
313,589;  311,937;  295,216;  297,545
313,674;  317,907;  307,206;  310,085
313,759;  293,957;  281,556;  282,625
313,844;  304,947;  292,776;  291,005
313,929;  299,527;  289,945;  291,695
314,014;  322,907;  313,306;  315,005
314,098;  308,777;  299,035;  300,425
314,183;  269,997;  263,505;  263,795
314,268;  302,987;  296,496;  298,955
314,353;  311,467;  302,026;  306,185
314,438;  315,307;  306,905;  311,515
314,522;  317,817;  309,486;  308,535
314,607;  312,577;  307,565;  307,855
314,692;  306,857;  301,885;  303,855
314,777;  294,367;  291,766;  292,395
314,861;  283,357;  277,285;  276,385
314,946;  322,497;  315,116;  317,565
315,031;  301,227;  291,875;  294,115
315,115;  310,317;  306,206;  308,065
315,200;  318,567;  312,146;  313,065
315,285;  294,987;  289,486;  289,595
315,369;  293,597;  287,945;  288,545
315,454;  316,517;  311,905;  311,025
315,539;  313,637;  310,246;  307,795
315,623;  313,717;  309,426;  313,225
315,708;  338,387;  335,605;  336,825
315,793;  299,937;  297,986;  298,155
315,877;  309,287;  302,975;  305,445
315,962;  291,047;  289,105;  291,925
316,046;  322,807;  317,065;  319,225
316,131;  337,977;  334,516;  337,215
316,216;  313,847;  310,315;  310,785
316,300;  305,767;  303,345;  302,165
316,385;  325,787;  325,315;  324,305
316,469;  334,287;  330,625;  331,955
316,554;  300,527;  296,005;  298,425
316,638;  302,847;  296,725;  301,565
316,723;  297,317;  292,546;  293,795
316,807;  301,857;  299,595;  299,275
316,892;  294,977;  288,975;  289,925
316,976;  317,997;  314,405;  316,505
317,061;  307,907;  306,035;  305,965
317,145;  327,417;  327,655;  325,965
317,230;  322,217;  321,505;  319,905
317,314;  281,527;  275,565;  275,085
317,398;  312,267;  310,706;  312,245
317,483;  290,697;  290,026;  291,085
317,567;  317,227;  315,326;  317,865
317,652;  287,197;  283,526;  286,625
317,736;  309,287;  308,776;  309,285
317,820;  336,397;  329,005;  334,665
317,905;  308,987;  306,706;  307,035
317,989;  301,947;  298,285;  300,875
318,073;  299,037;  298,076;  297,705
318,158;  291,037;  284,966;  285,565
318,242;  301,167;  296,845;  299,095
318,326;  288,157;  283,155;  284,015
318,411;  298,797;  295,125;  296,565
318,495;  291,097;  285,776;  287,165
318,579;  290,807;  288,746;  289,305
318,664;  282,267;  280,315;  284,255
318,748;  311,967;  305,996;  310,145
318,832;  291,277;  290,806;  289,475
318,916;  278,547;  274,785;  277,335
319,001;  301,337;  299,945;  301,485
319,085;  295,217;  292,885;  290,905
319,169;  301,777;  293,396;  294,485
319,253;  290,167;  287,216;  285,525
319,337;  305,037;  306,246;  304,885
319,422;  316,277;  316,125;  313,225
319,506;  288,367;  283,326;  285,905
319,590;  310,907;  303,915;  305,525
319,674;  298,447;  291,926;  295,405
319,758;  303,807;  295,165;  300,215
319,842;  314,137;  306,135;  309,155
319,926;  299,617;  294,815;  295,205
320,010;  273,187;  267,046;  269,575
320,095;  289,637;  280,926;  284,685
320,179;  285,937;  279,125;  281,175
320,263;  285,497;  277,385;  285,805
320,347;  276,127;  271,296;  279,075
320,431;  279,147;  273,435;  274,355
320,515;  303,167;  296,375;  299,935
320,599;  276,887;  269,866;  273,825
320,683;  309,427;  305,706;  305,495
320,767;  273,697;  266,236;  266,205
320,851;  288,167;  281,855;  287,785
320,935;  319,017;  312,565;  318,275
321,019;  297,327;  292,975;  290,075
321,103;  281,747;  278,135;  280,585
321,187;  276,857;  273,165;  273,265
321,271;  298,357;  294,616;  296,825
321,355;  286,657;  281,595;  283,805
321,439;  305,567;  301,216;  301,725
321,523;  285,267;  282,266;  284,705
321,606;  288,597;  287,426;  288,215
321,690;  289,287;  287,026;  288,215
321,774;  294,907;  288,336;  292,205
321,858;  293,157;  292,966;  291,945
321,942;  303,257;  294,276;  298,975
322,026;  288,937;  283,315;  282,695
322,110;  297,667;  293,146;  295,755
322,194;  300,587;  295,355;  301,055
322,277;  288,687;  286,135;  287,285
322,361;  282,687;  278,595;  281,215
322,445;  295,377;  289,315;  291,095
322,529;  299,297;  297,716;  299,645
322,613;  297,527;  297,206;  297,795
322,696;  271,917;  267,695;  272,865
322,780;  285,567;  283,026;  283,485
322,864;  282,807;  272,625;  279,835
322,948;  295,857;  292,326;  295,965
323,031;  286,357;  281,565;  282,215
323,115;  291,067;  284,586;  285,215
323,199;  300,507;  296,565;  299,105
323,282;  312,927;  307,496;  310,065
323,366;  293,007;  287,296;  293,625
323,450;  280,117;  273,496;  275,835
323,533;  319,797;  314,576;  317,415
323,617;  273,697;  268,695;  271,585
323,701;  289,537;  281,105;  283,575
323,784;  299,067;  292,576;  294,205
323,868;  302,447;  297,866;  299,875
323,952;  297,627;  290,966;  294,175
324,035;  311,267;  305,926;  310,825
324,119;  302,687;  295,466;  298,455
324,202;  296,357;  286,836;  292,745
324,286;  292,247;  284,986;  286,605
324,370;  294,967;  293,105;  296,765
324,453;  304,777;  299,616;  301,745
324,537;  302,737;  294,426;  298,035
324,620;  290,687;  286,635;  291,765
324,704;  275,997;  270,445;  276,525
324,787;  297,137;  294,875;  296,265
324,871;  315,967;  310,986;  315,255
324,954;  316,357;  312,246;  315,985
325,038;  312,007;  306,466;  306,985
325,121;  315,247;  308,695;  312,075
325,205;  295,657;  290,396;  293,295
325,288;  283,227;  279,556;  285,675
325,371;  300,927;  298,945;  302,395
325,455;  317,947;  314,026;  312,045
325,538;  289,837;  281,516;  287,185
325,622;  325,927;  320,806;  321,295
325,705;  298,587;  297,716;  298,675
325,788;  317,247;  313,625;  316,645
325,872;  306,037;  300,796;  300,745
325,955;  328,237;  319,845;  325,065
326,039;  312,507;  309,576;  312,795
326,122;  314,117;  310,746;  311,665
326,205;  313,637;  311,806;  310,235
326,289;  322,797;  313,986;  319,245
326,372;  302,187;  294,746;  299,195
326,455;  327,317;  323,095;  324,405
326,538;  319,777;  312,336;  316,545
326,622;  319,377;  318,396;  320,075
326,705;  291,917;  287,315;  287,875
326,788;  325,997;  321,266;  322,405
326,871;  323,867;  315,576;  317,965
326,955;  318,717;  313,836;  315,225
327,038;  310,377;  310,116;  310,855
327,121;  307,437;  301,516;  307,855
327,204;  315,657;  313,216;  314,045
327,288;  335,087;  328,956;  332,375
327,371;  299,287;  288,185;  296,955
327,454;  319,257;  313,065;  313,845
327,537;  303,777;  299,815;  302,435
327,620;  333,467;  322,935;  330,145
327,703;  312,207;  309,076;  310,615
327,786;  315,487;  311,076;  312,115
327,870;  329,117;  323,155;  328,715
327,953;  307,337;  301,155;  305,785
328,036;  297,517;  293,105;  299,035
328,119;  324,227;  317,576;  321,135
328,202;  304,807;  301,885;  305,875
328,285;  331,977;  326,776;  329,015
328,368;  322,117;  320,935;  322,625
328,451;  325,527;  320,635;  322,565
328,534;  309,037;  301,266;  307,075
328,617;  313,297;  305,676;  311,785
328,700;  331,147;  326,505;  326,695
328,783;  326,337;  320,785;  322,875
328,866;  321,877;  314,095;  319,935
328,949;  328,747;  319,966;  326,555
329,032;  303,097;  297,826;  300,605
329,115;  296,267;  290,905;  295,945
329,198;  288,627;  282,956;  283,785
329,281;  304,537;  299,336;  298,465
329,364;  321,407;  316,246;  319,245
329,447;  312,837;  307,176;  309,255
329,530;  330,407;  328,155;  328,175
329,613;  305,607;  300,565;  306,725
329,696;  334,287;  326,806;  330,715
329,778;  314,827;  311,306;  316,915
329,861;  299,627;  295,236;  299,565
329,944;  328,267;  321,685;  327,225
330,027;  317,907;  311,576;  315,115
330,110;  313,317;  307,595;  311,705
330,193;  302,627;  295,306;  299,955
330,275;  321,597;  312,296;  315,835
330,358;  295,837;  291,776;  296,185
330,441;  328,197;  323,586;  325,365
330,524;  310,217;  305,216;  311,095
330,607;  306,237;  304,345;  306,905
330,689;  316,177;  313,105;  314,535
330,772;  313,237;  311,105;  312,425
330,855;  329,897;  325,065;  327,855
330,938;  322,967;  312,315;  321,275
331,020;  319,377;  317,176;  320,535
331,103;  298,537;  293,035;  294,505
331,186;  308,557;  305,146;  307,085
331,268;  297,707;  293,565;  298,695
331,351;  321,727;  313,026;  316,455
331,434;  314,777;  308,385;  312,645
331,516;  320,347;  319,076;  321,185
331,599;  304,017;  297,095;  301,425
331,682;  313,477;  310,736;  310,985
331,764;  303,477;  293,326;  297,915
331,847;  321,997;  313,716;  315,705
331,929;  294,927;  290,026;  293,225
332,012;  313,897;  309,625;  310,055
332,095;  329,247;  323,306;  326,625
332,177;  324,757;  320,806;  324,285
332,260;  331,587;  327,526;  328,035
332,342;  313,677;  309,246;  314,445
332,425;  315,137;  312,516;  311,505
332,507;  313,237;  308,526;  311,575
332,590;  296,297;  287,595;  291,655
332,672;  299,897;  294,885;  298,455
332,755;  310,207;  306,855;  311,605
332,837;  308,777;  310,716;  312,255
332,920;  314,437;  309,076;  315,155
333,002;  330,627;  325,676;  328,895
333,085;  313,047;  313,375;  315,165
333,167;  304,467;  296,875;  298,575
333,249;  302,037;  294,526;  298,145
333,332;  297,857;  293,296;  297,715
333,414;  305,487;  300,035;  304,875
333,497;  306,357;  300,255;  302,305
333,579;  307,487;  300,996;  306,375
333,661;  324,637;  319,706;  320,745
333,744;  300,547;  293,695;  297,125
333,826;  311,637;  305,766;  306,065
333,908;  320,987;  313,896;  316,665
333,991;  308,687;  291,266;  291,545
334,073;  466,387;  312,706;  318,525
334,155;  362,907;  304,086;  305,525
334,238;  325,597;  318,576;  326,145
334,320;  303,347;  297,046;  300,585
334,402;  307,817;  302,996;  304,895
334,485;  304,957;  303,655;  304,015
334,567;  303,067;  299,776;  301,975
334,649;  285,877;  278,426;  282,925
334,731;  319,177;  313,456;  317,305
334,813;  319,337;  315,605;  320,355
334,896;  295,267;  290,185;  294,595
334,978;  305,347;  309,165;  302,585
335,060;  308,087;  304,255;  304,235
335,142;  304,267;  301,665;  302,275
335,224;  313,637;  309,766;  311,745
335,307;  302,757;  297,456;  298,965
335,389;  321,167;  310,385;  317,305
335,471;  304,127;  299,896;  306,115
335,553;  325,067;  319,866;  318,905
335,635;  318,907;  312,836;  315,315
335,717;  301,767;  298,195;  300,145
335,799;  326,897;  322,695;  323,585
335,881;  286,307;  278,385;  282,845
335,963;  292,777;  291,796;  293,005
336,045;  298,747;  295,516;  301,085
336,128;  277,357;  270,945;  275,225
336,210;  291,347;  288,996;  292,295
336,292;  301,717;  297,845;  300,615
336,374;  308,977;  300,956;  306,155
336,456;  293,077;  285,616;  288,495
336,538;  307,997;  303,165;  304,435
336,620;  316,307;  310,576;  312,205
336,702;  291,527;  294,766;  294,235
336,783;  312,087;  302,556;  304,225
336,865;  310,587;  304,176;  305,725
336,947;  313,997;  308,486;  311,205
337,029;  282,327;  281,826;  282,945
337,111;  319,727;  316,266;  316,735
337,193;  281,137;  280,986;  284,795
337,275;  312,627;  310,815;  314,535
337,357;  324,927;  318,815;  324,805
337,439;  310,997;  305,255;  310,655
337,521;  281,157;  277,225;  280,915
337,602;  301,667;  298,435;  301,085
337,684;  317,937;  315,635;  317,455
337,766;  313,287;  312,266;  312,305
337,848;  300,867;  295,086;  301,025
337,930;  304,927;  303,165;  306,525
338,012;  303,527;  298,586;  299,555
338,093;  315,847;  312,396;  315,895
338,175;  325,237;  318,195;  321,575
338,257;  311,367;  306,945;  309,225
338,339;  298,217;  294,086;  300,165
338,420;  313,987;  310,986;  310,895
338,502;  302,387;  298,836;  304,265
338,584;  290,247;  286,736;  289,235
338,666;  305,857;  303,426;  302,365
338,747;  335,767;  330,806;  334,875
338,829;  311,897;  309,176;  309,265
338,911;  295,077;  296,236;  298,915
338,992;  296,817;  295,746;  294,435
339,074;  308,197;  306,155;  307,855
339,156;  303,137;  298,176;  303,395
339,237;  328,517;  325,035;  327,765
339,319;  297,587;  294,935;  300,045
339,400;  311,897;  309,065;  311,225
339,482;  283,317;  278,165;  280,605
339,564;  319,627;  317,026;  316,575
339,645;  307,857;  304,595;  308,105
339,727;  295,567;  290,216;  294,375
339,808;  321,297;  317,685;  322,555
339,890;  301,197;  299,956;  302,415
339,971;  318,127;  307,016;  315,055
340,053;  339,217;  336,746;  335,255
340,134;  297,867;  296,535;  298,415
340,216;  321,387;  315,556;  319,645
340,297;  303,897;  298,396;  301,525
340,379;  319,007;  314,736;  316,975
340,460;  309,387;  306,685;  306,615
340,542;  300,657;  294,535;  297,775
340,623;  315,727;  307,926;  312,435
340,705;  301,097;  297,516;  295,795
340,786;  293,207;  289,685;  291,925
340,868;  308,357;  308,826;  304,055
340,949;  288,797;  285,605;  286,145
341,030;  327,057;  321,435;  328,715
341,112;  284,707;  280,565;  284,075
341,193;  274,197;  270,135;  273,595
341,274;  325,377;  322,176;  320,965
341,356;  324,537;  320,716;  321,795
341,437;  299,757;  301,635;  300,825
341,518;  313,287;  307,176;  314,795
341,600;  321,187;  320,866;  322,465
341,681;  330,757;  328,866;  332,375
341,762;  326,177;  325,206;  323,705
341,844;  289,417;  287,146;  292,185
341,925;  312,787;  308,225;  311,205
342,006;  325,497;  320,426;  323,055
342,087;  294,757;  288,095;  292,095
342,169;  310,357;  307,026;  309,845
342,250;  289,197;  286,935;  285,935
342,331;  298,937;  298,706;  299,075
342,412;  314,957;  307,655;  310,045
342,493;  293,667;  289,415;  293,325
342,575;  330,947;  327,095;  327,355
342,656;  317,227;  318,466;  318,265
342,737;  333,937;  329,836;  330,295
342,818;  311,807;  307,996;  309,015
342,899;  316,607;  314,505;  317,165
342,980;  311,517;  306,695;  310,155
343,061;  305,557;  303,065;  304,715
343,143;  324,087;  319,535;  319,565
343,224;  309,717;  306,706;  305,915
343,305;  304,067;  299,625;  303,115
343,386;  303,007;  297,996;  300,475
343,467;  304,857;  303,155;  305,535
343,548;  305,707;  304,176;  305,935
343,629;  318,807;  316,405;  317,625
343,710;  326,087;  322,766;  321,015
343,791;  327,377;  325,065;  327,935
343,872;  300,037;  298,975;  297,795
343,953;  321,207;  314,826;  316,625
344,034;  324,357;  319,475;  324,485
344,115;  308,197;  304,255;  303,425
344,196;  302,377;  298,935;  302,165
344,277;  297,067;  293,306;  294,615
344,358;  309,007;  304,755;  307,345
344,439;  297,147;  293,975;  294,205
344,520;  300,567;  298,546;  300,975
344,601;  314,397;  314,646;  315,525
344,681;  309,097;  302,426;  303,825
344,762;  287,877;  283,466;  287,625
344,843;  281,647;  275,996;  281,125
344,924;  308,757;  303,635;  306,085
345,005;  293,817;  287,176;  288,725
345,086;  313,087;  307,665;  309,725
345,167;  293,097;  293,986;  295,575
345,247;  328,817;  323,896;  328,905
345,328;  318,837;  315,315;  317,705
345,409;  312,457;  307,056;  309,355
345,490;  310,387;  308,415;  314,245
345,571;  312,507;  304,875;  312,045
345,651;  284,787;  279,456;  279,055
345,732;  312,957;  307,285;  312,275
345,813;  318,397;  311,836;  317,355
345,894;  288,257;  285,785;  287,595
345,974;  309,587;  309,556;  311,845
346,055;  300,287;  296,435;  295,735
346,136;  307,447;  304,405;  306,245
346,216;  330,427;  324,945;  328,565
346,297;  307,637;  306,565;  304,225
346,378;  294,487;  291,996;  294,005
346,458;  313,747;  307,375;  313,405
346,539;  305,707;  302,306;  305,975
346,620;  305,727;  305,815;  306,685
346,700;  292,717;  288,755;  289,765
346,781;  289,337;  284,556;  286,765
346,861;  307,417;  304,336;  307,325
346,942;  304,637;  304,336;  302,715
347,023;  319,677;  317,885;  316,005
347,103;  302,207;  297,396;  302,825
347,184;  298,137;  294,475;  296,785
347,264;  295,927;  294,565;  296,805
347,345;  294,647;  290,526;  295,525
347,425;  289,927;  285,125;  290,565
347,506;  286,347;  283,595;  283,195
347,586;  297,487;  289,725;  292,435
347,667;  311,807;  307,616;  304,445
347,747;  310,547;  311,116;  310,775
347,828;  299,507;  296,486;  296,465
347,908;  307,247;  303,306;  307,175
347,988;  304,337;  298,655;  306,125
348,069;  314,307;  311,056;  311,395
348,149;  308,597;  303,956;  309,065
348,230;  311,537;  309,956;  310,945
348,310;  285,367;  284,185;  285,715
348,390;  290,037;  288,526;  288,625
348,471;  306,407;  303,665;  305,125
348,551;  296,267;  290,695;  293,935
348,632;  291,147;  289,505;  294,065
348,712;  291,557;  292,706;  295,115
348,792;  328,357;  329,836;  329,985
348,873;  283,127;  281,905;  283,045
348,953;  292,537;  289,845;  290,395
349,033;  299,507;  297,466;  299,465
349,113;  291,077;  286,076;  286,905
349,194;  309,127;  301,595;  304,825
349,274;  308,257;  304,796;  307,395
349,354;  305,017;  303,046;  308,435
349,434;  301,937;  300,116;  301,925
349,515;  322,617;  316,486;  322,185
349,595;  303,237;  302,206;  302,035
349,675;  310,557;  305,635;  308,015
349,755;  299,847;  296,746;  297,615
349,835;  309,617;  301,195;  307,695
349,916;  300,847;  298,435;  303,915
349,996;  292,957;  291,105;  291,745
350,076;  318,997;  312,375;  317,645
350,156;  285,497;  284,836;  287,665
350,236;  315,207;  314,116;  311,925
350,316;  298,417;  292,975;  295,765
350,396;  308,367;  305,646;  310,065
350,476;  305,747;  301,826;  304,275
350,556;  299,067;  293,966;  299,935
350,637;  323,157;  321,005;  321,825
350,717;  295,077;  288,445;  291,825
350,797;  307,747;  302,616;  305,905
350,877;  294,687;  289,875;  294,705
350,957;  301,827;  297,635;  300,095
351,037;  302,347;  298,556;  303,455
351,117;  299,857;  296,276;  296,555
351,197;  306,727;  303,366;  306,305
351,277;  304,177;  300,556;  301,575
351,357;  316,597;  308,806;  314,445
351,437;  308,437;  306,105;  307,755
351,516;  319,827;  317,986;  318,355
351,596;  298,517;  292,896;  296,025
351,676;  294,827;  290,405;  294,265
351,756;  330,287;  323,426;  326,135
351,836;  314,277;  313,866;  317,935
351,916;  302,947;  297,905;  298,975
351,996;  308,947;  303,996;  305,265
352,076;  305,117;  303,486;  303,085
352,156;  323,187;  319,556;  320,405
352,235;  304,997;  301,255;  300,955
352,315;  315,767;  312,456;  314,415
352,395;  309,067;  308,206;  309,425
352,475;  322,547;  315,405;  320,955
352,555;  332,937;  330,236;  330,635
352,634;  325,567;  321,956;  326,705
352,714;  305,547;  302,595;  304,055
352,794;  354,757;  354,466;  358,075
352,874;  321,507;  314,685;  317,555
352,953;  338,097;  337,676;  339,095
353,033;  324,127;  319,306;  320,925
353,113;  336,777;  332,135;  336,575
353,193;  328,587;  328,046;  329,935
353,272;  336,347;  333,135;  334,365
353,352;  314,397;  307,035;  311,285
353,432;  350,127;  343,005;  347,495
353,511;  330,917;  326,185;  330,665
353,591;  362,757;  361,616;  362,555
353,671;  334,897;  331,926;  333,015
353,750;  334,337;  332,296;  331,275
353,830;  318,777;  313,646;  317,015
353,909;  346,217;  339,836;  343,655
353,989;  318,287;  317,385;  320,255
354,069;  322,047;  319,456;  319,155
354,148;  339,997;  335,035;  339,585
354,228;  317,927;  315,695;  316,905
354,307;  334,567;  329,405;  332,345
354,387;  327,437;  322,095;  322,965
354,466;  316,597;  311,635;  316,045
354,546;  342,237;  335,135;  337,645
354,625;  319,217;  319,815;  320,355
354,705;  324,747;  324,246;  326,865
354,784;  319,427;  316,445;  318,195
354,864;  318,467;  316,635;  317,385
354,943;  341,327;  333,695;  339,105
355,023;  314,997;  310,996;  312,285
355,102;  364,957;  362,866;  363,435
355,181;  316,597;  315,966;  318,045
355,261;  342,027;  338,056;  342,165
355,340;  308,477;  303,845;  307,115
355,420;  345,547;  340,105;  342,305
355,499;  328,437;  322,975;  325,635
355,578;  320,417;  315,276;  316,885
355,658;  336,637;  332,875;  333,745
355,737;  322,887;  317,576;  319,005
355,816;  329,387;  323,276;  324,605
355,896;  322,577;  316,026;  321,355
355,975;  310,537;  307,355;  310,055
356,054;  310,637;  311,935;  312,455
356,133;  292,397;  290,565;  293,305
356,213;  326,987;  324,845;  324,825
356,292;  309,707;  304,016;  309,325
356,371;  316,157;  314,146;  314,035
356,451;  326,687;  324,755;  327,685
356,530;  352,767;  349,496;  350,795
356,609;  318,307;  311,146;  315,535
356,688;  320,237;  316,475;  316,165
356,767;  309,427;  304,695;  309,855
356,846;  325,107;  327,035;  327,235
356,926;  343,907;  340,016;  343,965
357,005;  321,307;  318,345;  318,565
357,084;  308,117;  304,466;  308,385
357,163;  324,047;  317,706;  317,185
357,242;  324,727;  320,146;  319,515
357,321;  313,597;  314,496;  316,575
357,400;  322,047;  321,236;  318,865
357,479;  320,627;  317,725;  320,795
357,559;  328,687;  321,405;  325,705
357,638;  303,577;  300,616;  298,815
357,717;  317,787;  313,746;  311,555
357,796;  334,167;  329,266;  330,875
357,875;  315,077;  314,466;  313,455
357,954;  315,227;  310,155;  313,855
358,033;  323,687;  323,405;  320,935
358,112;  333,637;  329,966;  328,315
358,191;  319,777;  315,276;  318,965
358,270;  299,317;  295,505;  297,695
358,349;  325,787;  321,625;  323,725
358,428;  328,827;  322,445;  326,125
358,507;  324,777;  321,366;  325,105
358,585;  323,037;  320,355;  325,525
358,664;  335,527;  332,266;  334,505
358,743;  325,597;  323,776;  326,515
358,822;  338,927;  334,475;  338,195
358,901;  309,697;  309,176;  309,505
358,980;  315,157;  310,885;  313,735
359,059;  332,817;  328,616;  332,255
359,138;  330,177;  329,415;  328,565
359,216;  325,537;  322,225;  327,485
359,295;  310,267;  309,475;  309,515
359,374;  336,327;  330,026;  333,455
359,453;  323,097;  316,345;  320,885
359,532;  309,857;  304,526;  308,455
359,610;  322,657;  319,556;  323,285
359,689;  334,977;  331,116;  333,025
359,768;  317,057;  313,706;  315,305
359,847;  305,777;  302,065;  305,385
359,925;  309,827;  304,105;  307,215
360,004;  304,567;  299,565;  302,585
360,083;  322,347;  320,165;  321,795
360,161;  311,527;  305,676;  309,885
360,240;  296,597;  288,725;  291,455
360,319;  318,847;  318,276;  317,225
360,397;  325,757;  324,986;  331,265
360,476;  326,977;  318,296;  324,355
360,555;  348,347;  345,565;  346,835
360,633;  307,247;  304,456;  304,945
360,712;  313,797;  309,056;  311,825
360,790;  335,687;  330,065;  331,185
360,869;  314,697;  310,266;  313,085
360,948;  323,737;  322,466;  322,235
361,026;  301,587;  300,065;  301,245
361,105;  312,207;  306,116;  309,875
361,183;  329,317;  324,725;  326,345
361,262;  304,307;  302,375;  307,465
361,340;  307,887;  305,815;  306,875
361,419;  293,617;  289,896;  290,845
361,497;  343,497;  340,926;  346,955
361,576;  324,077;  317,736;  323,245
361,654;  346,027;  342,736;  343,615
361,733;  301,267;  297,366;  297,305
361,811;  333,327;  329,065;  331,875
361,890;  294,597;  292,595;  293,595
361,968;  317,727;  313,706;  316,715
362,046;  337,117;  335,296;  335,795
362,125;  342,527;  337,435;  340,865
362,203;  318,337;  314,635;  316,745
362,282;  334,577;  328,676;  334,675
362,360;  326,687;  318,315;  323,125
362,438;  322,017;  313,565;  317,495
362,517;  360,977;  357,725;  357,035
362,595;  344,187;  340,956;  345,025
362,673;  341,017;  334,576;  338,035
362,752;  328,677;  326,366;  329,445
362,830;  340,467;  343,155;  338,795
362,908;  327,097;  322,885;  326,315
362,986;  336,137;  333,595;  334,645
363,065;  331,717;  326,405;  330,985
363,143;  364,957;  359,875;  363,525
363,221;  324,187;  313,755;  319,675
363,299;  315,667;  315,845;  315,595
363,378;  332,267;  327,546;  328,495
363,456;  309,387;  304,326;  305,295
363,534;  332,547;  323,996;  327,895
363,612;  332,987;  327,546;  330,285
363,690;  341,977;  337,885;  341,915
363,769;  358,527;  349,336;  354,965
363,847;  339,807;  332,326;  333,935
363,925;  309,567;  303,095;  306,775
364,003;  357,537;  350,866;  351,845
364,081;  346,937;  336,345;  339,765
364,159;  339,377;  331,836;  334,695
364,237;  350,637;  341,276;  343,025
364,315;  332,237;  318,866;  320,765
364,393;  365,737;  350,935;  355,465
364,471;  346,197;  328,185;  329,975
364,549;  357,517;  333,026;  334,495
364,627;  359,317;  323,095;  327,065
364,705;  368,777;  311,135;  310,945
364,783;  441,287;  323,496;  332,235
364,861; 1007,457;  331,396;  334,915
364,939; 3541,327;  314,086;  319,855
365,017;  807,127;  306,046;  310,735
365,095;  375,767;  322,116;  324,495
365,173;  381,957;  345,556;  349,605
365,251;  388,897;  341,535;  344,665
365,329;  535,397;  346,466;  345,195
365,407; 1149,067;  318,345;  321,385
365,485;  467,357;  344,826;  348,395
365,563;  362,277;  344,306;  346,815
365,641;  343,267;  331,896;  331,005
365,719;  346,207;  337,095;  336,965
365,796;  340,767;  334,926;  336,075
365,874;  360,627;  347,426;  349,165
365,952;  323,957;  309,516;  312,925
366,030;  350,677;  334,866;  333,525
366,108;  366,137;  326,345;  328,575
366,185;  624,477;  338,396;  343,695
366,263;  874,977;  334,646;  340,035
366,341;  384,397;  334,125;  339,925
366,419;  343,997;  331,535;  331,355
366,496;  353,407;  342,655;  345,225
366,574;  332,977;  325,826;  329,315
366,652;  354,747;  345,296;  349,635
366,730;  373,317;  365,475;  368,065
366,807;  335,947;  330,845;  334,945
366,885;  329,747;  321,135;  327,175
366,963;  337,467;  329,016;  331,635
367,040;  355,787;  345,815;  352,465
367,118;  328,087;  321,875;  325,205
367,196;  349,297;  341,896;  344,715
367,273;  340,537;  335,845;  338,245
367,351;  333,417;  328,155;  331,125
367,428;  361,547;  355,016;  356,915
367,506;  336,567;  329,225;  333,905
367,584;  366,517;  360,216;  363,085
367,661;  347,667;  341,785;  346,585
367,739;  334,907;  328,466;  334,835
367,816;  328,747;  320,345;  324,175
367,894;  345,597;  339,146;  345,755
367,971;  339,037;  329,885;  333,335
368,049;  355,957;  349,586;  353,435
368,126;  319,337;  314,625;  317,265
368,204;  357,067;  351,836;  352,775
368,281;  356,177;  353,225;  355,775
368,359;  355,407;  348,806;  354,965
368,436;  350,727;  342,385;  348,785
368,514;  351,247;  349,646;  351,035
368,591;  349,917;  343,486;  348,405
368,668;  350,547;  347,486;  351,455
368,746;  362,317;  358,556;  362,125
368,823;  348,617;  342,405;  345,515
368,901;  341,527;  339,046;  341,025
368,978;  361,507;  354,975;  361,925
369,055;  344,647;  343,826;  347,145
369,133;  372,867;  367,046;  368,725
369,210;  342,867;  339,206;  342,185
369,287;  371,597;  367,986;  371,205
369,365;  371,317;  368,896;  369,715
369,442;  351,077;  346,826;  351,135
369,519;  312,807;  306,396;  310,475
369,596;  375,887;  369,005;  372,695
369,674;  339,167;  336,526;  336,705
369,751;  372,047;  368,005;  369,405
369,828;  356,077;  350,366;  351,255
369,905;  355,787;  354,796;  358,705
369,983;  332,837;  329,826;  336,485
370,060;  339,027;  335,185;  336,165
370,137;  374,377;  371,595;  373,975
370,214;  341,527;  340,246;  340,845
370,291;  354,287;  347,845;  351,965
370,368;  352,117;  345,426;  349,675
370,446;  337,947;  335,716;  337,375
370,523;  340,277;  331,586;  338,615
370,600;  357,837;  350,706;  356,355
370,677;  350,207;  345,826;  349,525
370,754;  347,687;  341,706;  344,655
370,831;  351,457;  344,885;  347,665
370,908;  372,637;  368,556;  369,945
370,985;  330,267;  326,206;  327,885
371,062;  351,307;  346,635;  347,955
371,139;  366,227;  362,125;  364,815
371,216;  360,227;  357,496;  359,475
371,293;  351,127;  350,576;  350,305
371,370;  332,187;  328,806;  332,395
371,447;  358,837;  354,736;  355,835
371,524;  373,967;  374,685;  378,505
371,601;  374,957;  371,556;  374,285
371,678;  379,427;  374,306;  375,345
371,755;  351,287;  348,526;  348,275
371,832;  375,327;  374,526;  377,175
371,909;  345,007;  342,065;  344,605
371,986;  381,857;  376,505;  379,065
372,063;  351,277;  346,195;  348,745
372,140;  360,177;  354,056;  357,495
372,216;  365,727;  360,225;  360,935
372,293;  344,637;  341,945;  344,805
372,370;  372,297;  370,236;  372,635
372,447;  362,787;  361,646;  361,385
372,524;  354,897;  349,725;  352,115
372,601;  355,887;  353,236;  356,005
372,677;  343,397;  339,586;  339,035
372,754;  349,887;  347,516;  350,955
372,831;  358,787;  354,716;  356,955
372,908;  369,357;  368,496;  364,795
372,984;  357,157;  349,246;  356,035
373,061;  343,097;  342,046;  342,845
373,138;  356,207;  349,986;  354,465
373,215;  342,917;  345,155;  346,585
373,291;  350,367;  347,556;  353,415
373,368;  354,887;  353,516;  357,375
373,445;  352,577;  348,285;  348,395
373,521;  352,627;  349,216;  353,935
373,598;  345,897;  341,766;  343,845
373,675;  335,687;  332,646;  334,115
373,751;  351,627;  345,375;  354,195
373,828;  343,847;  341,076;  346,375
373,904;  392,987;  387,225;  391,935
373,981;  334,797;  332,516;  333,585
374,057;  359,737;  353,306;  355,945
374,134;  333,757;  331,706;  334,435
374,211;  354,557;  348,826;  351,835
374,287;  341,487;  338,565;  339,035
374,364;  366,787;  362,426;  365,335
374,440;  322,647;  319,035;  321,205
374,517;  366,537;  361,625;  366,995
374,593;  328,297;  326,896;  326,865
374,670;  344,487;  340,095;  342,905
374,746;  352,387;  346,915;  349,135
374,823;  371,667;  369,255;  368,775
374,899;  367,437;  366,836;  366,475
374,975;  344,247;  336,035;  341,495
375,052;  326,097;  319,776;  326,175
375,128;  329,077;  325,956;  331,675
375,205;  360,037;  353,665;  355,605
375,281;  338,427;  337,296;  336,395
375,357;  368,067;  361,026;  364,245
375,434;  338,137;  331,986;  338,045
375,510;  353,047;  347,755;  353,175
375,586;  351,537;  347,486;  349,845
375,663;  323,647;  321,926;  323,515
375,739;  358,247;  355,716;  358,675
375,815;  348,267;  346,366;  346,765
375,892;  352,437;  344,516;  348,555
375,968;  337,787;  331,605;  336,855
376,044;  344,027;  335,866;  339,405
376,120;  338,387;  332,535;  339,615
376,197;  353,767;  348,466;  352,185
376,273;  340,667;  340,516;  341,095
376,349;  383,197;  378,366;  379,125
376,425;  365,767;  362,935;  364,425
376,501;  350,067;  344,225;  347,555
376,578;  367,387;  362,885;  363,255
376,654;  384,337;  383,866;  382,945
376,730;  364,947;  360,266;  364,005
376,806;  377,377;  375,185;  376,845
376,882;  379,807;  377,176;  378,355
376,958;  376,487;  376,706;  373,325
377,034;  325,767;  319,695;  317,895
377,111;  371,697;  368,826;  369,285
377,187;  391,857;  390,845;  391,825
377,263;  389,667;  383,885;  384,725
377,339;  347,527;  341,445;  346,375
377,415;  367,617;  366,366;  365,685
377,491;  348,487;  342,885;  347,505
377,567;  361,227;  359,755;  360,685
377,643;  382,317;  380,076;  378,785
377,719;  368,317;  363,706;  367,845
377,795;  351,367;  345,725;  349,165
377,871;  370,377;  367,866;  370,355
377,947;  352,757;  348,236;  351,215
378,023;  348,827;  345,855;  349,075
378,099;  349,737;  349,035;  350,465
378,174;  374,897;  374,176;  374,825
378,250;  366,327;  363,105;  366,955
378,326;  373,487;  366,255;  370,045
378,402;  360,397;  357,685;  360,315
378,478;  365,187;  361,605;  365,295
378,554;  375,147;  370,396;  375,075
378,630;  369,157;  365,225;  365,285
378,706;  361,967;  358,076;  357,335
378,781;  398,047;  390,875;  394,875
378,857;  368,847;  363,185;  366,505
378,933;  364,897;  360,315;  365,855
379,009;  354,267;  351,426;  351,035
379,085;  393,417;  393,826;  391,725
379,160;  382,677;  377,246;  378,485
379,236;  377,817;  374,195;  376,655
379,312;  366,857;  359,915;  361,725
379,387;  356,447;  354,486;  355,105
379,463;  366,377;  359,836;  363,685
379,539;  373,917;  370,475;  373,395
379,615;  362,877;  359,056;  358,495
379,690;  399,197;  395,035;  398,755
379,766;  380,457;  373,276;  379,335
379,842;  390,097;  391,105;  391,375
379,917;  388,617;  380,935;  388,225
379,993;  372,407;  368,366;  373,385
380,068;  363,057;  359,236;  361,755
380,144;  382,777;  381,086;  383,405
380,220;  388,177;  382,086;  386,535
380,295;  356,357;  353,005;  355,035
380,371;  364,977;  359,935;  361,545
380,446;  382,717;  377,165;  381,125
380,522;  351,207;  348,766;  349,425
380,597;  364,107;  360,486;  359,965
380,673;  398,337;  390,456;  394,425
380,748;  359,607;  358,046;  358,445
380,824;  371,557;  367,676;  369,935
380,899;  389,407;  386,216;  388,425
380,975;  367,417;  365,475;  366,905
381,050;  356,087;  352,806;  352,825
381,126;  370,737;  370,526;  373,695
381,201;  405,677;  398,806;  402,495
381,277;  374,807;  373,435;  374,795
381,352;  391,117;  388,105;  390,855
381,427;  374,577;  372,586;  376,025
381,503;  382,057;  378,896;  379,385
381,578;  367,957;  360,605;  365,515
381,653;  372,187;  368,776;  372,375
381,729;  365,177;  361,535;  360,945
381,804;  369,917;  367,475;  368,805
381,879;  385,527;  383,306;  386,055
381,955;  357,477;  354,396;  356,545
382,030;  356,857;  356,556;  357,225
382,105;  376,737;  375,586;  372,555
382,181;  369,567;  367,466;  371,255
382,256;  379,247;  378,116;  374,765
382,331;  375,897;  367,216;  371,745
382,406;  355,517;  353,266;  357,745
382,482;  363,767;  361,315;  357,655
382,557;  365,367;  363,526;  366,745
382,632;  375,527;  370,595;  371,585
382,707;  364,567;  361,135;  365,615
382,782;  369,887;  361,516;  366,275
382,857;  363,617;  358,996;  361,035
382,933;  356,417;  351,776;  352,995
383,008;  350,917;  344,065;  345,165
383,083;  377,877;  376,866;  379,215
383,158;  385,627;  378,866;  381,615
383,233;  364,917;  362,385;  363,105
383,308;  363,327;  359,875;  362,675
383,383;  391,257;  389,445;  391,785
383,458;  362,437;  361,135;  360,475
383,533;  346,577;  342,456;  344,625
383,608;  395,237;  387,885;  390,385
383,683;  391,377;  385,046;  389,585
383,758;  385,367;  380,285;  380,925
383,833;  372,007;  370,296;  371,015
383,908;  343,827;  343,206;  342,165
383,983;  350,797;  346,296;  350,755
384,058;  360,767;  355,246;  357,655
384,133;  369,377;  368,185;  368,575
384,208;  380,527;  376,796;  379,565
384,283;  352,367;  348,736;  351,825
384,358;  385,917;  381,845;  387,485
384,433;  362,057;  357,496;  357,355
384,508;  373,527;  368,966;  373,895
384,583;  377,127;  373,725;  375,265
384,658;  371,867;  367,915;  371,275
384,732;  341,417;  339,456;  339,705
384,807;  369,687;  366,935;  369,005
384,882;  375,217;  371,246;  373,145
384,957;  374,467;  368,095;  371,985
385,032;  377,227;  375,426;  376,555
385,106;  372,557;  370,216;  371,515
385,181;  360,207;  351,385;  357,155
385,256;  367,817;  363,565;  366,745
385,331;  378,057;  371,935;  373,255
385,405;  385,367;  380,975;  381,445
385,480;  367,867;  365,695;  366,715
385,555;  402,867;  399,306;  400,405
385,630;  395,187;  390,956;  395,935
385,704;  379,117;  374,056;  377,105
385,779;  367,367;  364,405;  364,855
385,854;  370,327;  368,746;  369,975
385,928;  365,017;  363,016;  365,315
386,003;  406,217;  402,586;  405,115
386,078;  374,707;  372,466;  374,995
386,152;  404,137;  401,456;  401,815
386,227;  362,087;  357,646;  361,225
386,301;  381,287;  378,725;  380,385
386,376;  357,167;  348,695;  355,015
386,450;  378,697;  378,616;  381,145
386,525;  375,207;  373,556;  377,655
386,600;  391,987;  385,746;  385,925
386,674;  367,317;  364,076;  367,315
386,749;  380,397;  375,095;  381,315
386,823;  384,917;  377,435;  382,095
386,898;  385,787;  379,766;  380,535
386,972;  389,597;  380,966;  385,985
387,047;  378,437;  369,776;  374,355
387,121;  384,007;  379,695;  380,335
387,195;  361,667;  357,875;  359,895
387,270;  389,297;  385,625;  385,415
387,344;  406,587;  404,405;  407,055
387,419;  391,377;  385,665;  393,195
387,493;  382,577;  377,776;  379,825
387,567;  359,397;  355,005;  358,475
387,642;  407,527;  403,586;  405,945
387,716;  377,757;  369,565;  372,245
387,790;  373,277;  367,706;  371,225
387,865;  375,887;  372,806;  373,715
387,939;  408,157;  403,005;  404,415
388,013;  388,627;  384,806;  386,145
388,088;  369,467;  368,655;  370,085
388,162;  372,677;  370,135;  371,835
388,236;  375,297;  372,456;  375,275
388,310;  364,577;  361,966;  364,475
388,385;  402,287;  397,185;  400,845
388,459;  380,207;  379,996;  380,235
388,533;  364,467;  363,676;  362,565
388,607;  371,097;  366,776;  365,955
388,682;  376,337;  374,806;  375,745
388,756;  360,857;  355,035;  360,825
388,830;  394,347;  390,255;  394,075
388,904;  384,017;  378,276;  385,365
388,978;  371,737;  369,535;  370,165
389,052;  379,567;  375,396;  377,225
389,126;  375,757;  370,435;  376,195
389,200;  377,827;  372,665;  377,205
389,275;  371,227;  369,266;  367,695
389,349;  376,137;  374,695;  373,065
389,423;  372,277;  369,565;  369,375
389,497;  384,457;  380,966;  383,775
389,571;  370,097;  368,665;  370,175
389,645;  379,247;  376,806;  379,805
389,719;  375,297;  369,396;  372,955
389,793;  346,837;  346,576;  348,725
389,867;  403,107;  398,035;  402,955
389,941;  374,687;  375,375;  377,215
390,015;  368,667;  361,135;  364,515
390,089;  365,087;  360,426;  362,085
390,163;  375,967;  372,456;  375,935
390,237;  379,987;  375,435;  379,295
390,310;  384,427;  379,276;  382,155
390,384;  386,227;  376,546;  383,625
390,458;  406,527;  400,826;  403,825
390,532;  387,317;  383,496;  386,725
390,606;  369,117;  365,945;  369,265
390,680;  370,697;  366,466;  368,115
390,754;  372,117;  366,385;  368,915
390,827;  389,727;  388,276;  392,645
390,901;  396,597;  391,855;  396,215
390,975;  374,697;  368,905;  370,295
391,049;  371,147;  366,366;  364,315
391,123;  362,467;  362,685;  363,545
391,196;  369,137;  367,635;  367,855
391,270;  380,607;  378,426;  377,835
391,344;  362,717;  360,056;  359,585
391,418;  372,317;  372,975;  372,155
391,491;  364,057;  362,655;  363,995
391,565;  367,307;  362,065;  366,105
391,639;  396,767;  394,345;  397,875
391,712;  388,437;  385,815;  384,375
391,786;  384,297;  382,646;  386,785
391,860;  374,577;  369,385;  370,925
391,933;  378,377;  369,935;  371,115
392,007;  377,417;  371,355;  380,875
392,081;  401,497;  396,456;  399,955
392,154;  383,787;  377,845;  383,895
392,228;  395,347;  391,366;  394,685
392,301;  381,587;  376,266;  381,275
392,375;  394,017;  386,076;  389,995
392,448;  383,447;  379,516;  384,445
392,522;  377,277;  376,236;  379,965
392,595;  375,817;  370,105;  374,245
392,669;  379,477;  376,116;  379,675
392,742;  397,727;  390,975;  396,915
392,816;  397,857;  397,296;  400,205
392,889;  396,057;  392,746;  396,605
392,963;  409,487;  409,095;  409,745
393,036;  388,977;  385,345;  386,785
393,110;  398,767;  391,155;  393,885
393,183;  409,567;  400,836;  405,685
393,257;  421,267;  415,456;  417,745
393,330;  374,837;  365,845;  369,745
393,403;  392,447;  390,486;  395,585
393,477;  360,287;  355,845;  358,875
393,550;  394,577;  390,306;  395,545
393,623;  391,817;  388,396;  388,295
393,697;  406,737;  406,056;  406,835
393,770;  385,647;  376,556;  379,065
393,843;  405,167;  402,996;  406,915
393,917;  397,867;  394,216;  398,485
393,990;  414,947;  409,996;  410,125
394,063;  396,597;  386,855;  392,225
394,136;  394,107;  388,635;  391,675
394,210;  394,217;  393,336;  395,655
394,283;  409,427;  402,785;  407,175
394,356;  401,087;  399,165;  399,175
394,429;  399,317;  396,935;  398,825
394,502;  387,057;  382,016;  383,895
394,576;  419,657;  414,125;  414,715
394,649;  381,557;  378,776;  377,865
394,722;  407,987;  400,896;  403,785
394,795;  413,717;  408,306;  413,185
394,868;  386,547;  384,135;  385,985
394,941;  379,787;  376,435;  375,265
395,014;  421,397;  417,056;  420,205
395,088;  401,837;  398,956;  399,175
395,161;  398,937;  395,466;  398,685
395,234;  410,287;  409,236;  410,735
395,307;  405,627;  402,236;  405,525
395,380;  386,287;  384,736;  385,325
395,453;  438,947;  436,845;  437,285
395,526;  413,687;  408,385;  412,495
395,599;  432,257;  426,926;  430,645
395,672;  393,267;  394,586;  394,895
395,745;  421,957;  417,125;  421,075
395,818;  381,507;  376,306;  378,615
395,891;  391,067;  385,635;  387,695
395,964;  415,337;  415,896;  414,885
396,036;  387,717;  387,486;  384,175
396,109;  396,927;  392,076;  395,785
396,182;  400,287;  396,766;  399,545
396,255;  400,357;  399,225;  398,845
396,328;  412,587;  410,065;  411,075
396,401;  370,397;  370,746;  371,295
396,474;  384,127;  381,086;  381,505
396,547;  403,937;  397,046;  400,645
396,619;  396,017;  390,755;  390,525
396,692;  411,427;  404,866;  411,355
396,765;  376,227;  370,616;  372,985
396,838;  392,647;  388,225;  388,295
396,911;  376,127;  371,266;  373,155
396,983;  395,247;  392,496;  392,385
397,056;  375,377;  372,355;  374,095
397,129;  390,157;  387,796;  389,615
397,201;  395,927;  391,556;  389,605
397,274;  389,137;  385,366;  389,335
397,347;  364,967;  363,345;  363,665
397,420;  389,187;  384,605;  387,195
397,492;  392,097;  388,296;  388,685
397,565;  382,017;  375,915;  379,595
397,637;  376,447;  369,366;  372,085
397,710;  354,217;  351,586;  350,295
397,783;  414,707;  412,855;  414,805
397,855;  348,397;  345,345;  347,055
397,928;  372,697;  368,336;  371,095
398,000;  399,267;  395,866;  396,635
398,073;  390,907;  386,546;  384,745
398,146;  380,247;  376,706;  377,295
398,218;  397,997;  390,255;  393,135
398,291;  392,377;  385,806;  387,915
398,363;  383,967;  381,755;  384,505
398,436;  374,447;  369,855;  374,675
398,508;  384,597;  383,266;  385,345
398,581;  384,197;  378,206;  380,565
398,653;  380,507;  374,255;  373,825
398,726;  380,847;  378,535;  383,385
398,798;  391,037;  383,306;  387,885
398,870;  396,817;  391,116;  396,905
398,943;  369,307;  366,236;  369,775
399,015;  369,077;  365,676;  368,815
399,088;  390,657;  389,655;  388,435
399,160;  372,287;  368,076;  368,815
399,232;  353,997;  350,405;  352,095
399,305;  374,417;  368,435;  372,935
399,377;  385,087;  377,905;  377,535
399,449;  389,347;  386,246;  388,735
399,522;  426,077;  421,875;  424,965
399,594;  366,377;  364,576;  365,315
399,666;  388,187;  382,625;  385,235
399,738;  375,787;  373,336;  375,225
399,811;  375,127;  376,736;  377,025
399,883;  391,527;  386,105;  388,295
399,955;  390,977;  389,855;  389,195
400,027;  351,807;  345,945;  349,545
400,100;  407,057;  407,366;  409,275
400,172;  351,347;  348,296;  349,645
400,244;  380,657;  378,225;  381,195
400,316;  394,847;  393,016;  393,505
400,388;  388,317;  389,385;  393,005
400,460;  366,027;  359,306;  364,605
400,532;  351,837;  350,826;  351,835
400,605;  383,337;  377,736;  384,975
400,677;  406,297;  402,285;  404,675
400,749;  397,857;  395,685;  398,125
400,821;  391,657;  385,956;  388,105
400,893;  378,677;  379,445;  382,305
400,965;  390,657;  386,755;  392,785
401,037;  389,667;  387,565;  392,525
401,109;  372,997;  370,725;  373,835
401,181;  381,907;  380,716;  385,485

