pru
Integration time [ms]:   0,150
Averaging Nr. [scans]: 100
Smoothing Nr. [pixels]: 0
Data measured with spectrometer [name]: 7416147SP
Wave   ;Sample   ;Dark     ;Reference
[nm]   ;[counts] ;[counts] ;[counts] 

230,218;  292,621;  290,315;  293,845
230,311;  318,841;  319,885;  318,565
230,404;  309,931;  309,855;  312,875
230,497;  316,121;  317,385;  315,715
230,591;  334,841;  333,426;  335,355
230,684;  326,560;  326,486;  329,355
230,777;  311,771;  311,736;  314,765
230,870;  315,810;  313,326;  316,955
230,964;  311,901;  310,885;  314,745
231,057;  340,641;  342,496;  343,475
231,150;  332,190;  331,695;  332,715
231,243;  332,521;  330,635;  332,775
231,336;  329,790;  331,375;  331,335
231,430;  320,451;  316,496;  317,715
231,523;  325,151;  324,516;  326,785
231,616;  311,380;  305,445;  309,685
231,709;  344,991;  328,065;  330,025
231,802;  315,940;  300,945;  301,885
231,895;  314,401;  299,836;  300,315
231,988;  327,681;  315,655;  318,535
232,082;  315,871;  298,155;  302,425
232,175;  318,021;  302,155;  306,175
232,268;  317,980;  301,266;  305,345
232,361;  318,171;  304,806;  307,515
232,454;  336,451;  322,396;  323,025
232,547;  336,241;  318,716;  322,655
232,640;  308,380;  296,766;  294,035
232,733;  332,611;  314,116;  323,045
232,826;  307,690;  288,915;  295,035
232,919;  326,931;  313,826;  312,665
233,012;  306,121;  293,646;  292,775
233,105;  315,651;  294,766;  298,815
233,199;  316,380;  299,875;  304,045
233,292;  308,660;  293,475;  296,235
233,385;  276,651;  263,426;  262,225
233,478;  311,201;  293,885;  295,685
233,571;  341,831;  324,586;  327,675
233,664;  319,910;  305,996;  308,435
233,757;  298,461;  280,796;  281,395
233,850;  294,290;  282,255;  285,825
233,943;  306,540;  290,896;  292,195
234,035;  319,611;  300,576;  302,355
234,128;  295,230;  281,836;  283,945
234,221;  313,060;  297,665;  298,245
234,314;  325,141;  304,915;  311,975
234,407;  322,660;  302,935;  309,075
234,500;  297,271;  277,625;  281,875
234,593;  301,320;  287,095;  285,735
234,686;  309,931;  293,746;  293,765
234,779;  306,280;  291,266;  293,165
234,872;  297,431;  281,806;  281,565
234,965;  304,690;  292,806;  290,795
235,058;  290,171;  274,155;  276,215
235,150;  302,861;  285,776;  290,805
235,243;  295,970;  282,736;  284,425
235,336;  318,421;  300,695;  304,545
235,429;  289,081;  273,646;  272,515
235,522;  346,980;  330,996;  335,445
235,615;  276,510;  262,276;  265,145
235,707;  296,421;  282,415;  282,335
235,800;  303,160;  289,815;  290,515
235,893;  304,621;  289,956;  292,955
235,986;  316,831;  298,266;  299,325
236,079;  301,371;  286,586;  291,125
236,171;  284,820;  270,725;  271,865
236,264;  325,220;  312,635;  313,275
236,357;  304,991;  290,986;  293,865
236,450;  325,010;  315,225;  317,215
236,542;  285,051;  267,065;  272,575
236,635;  329,121;  313,546;  316,385
236,728;  299,410;  285,516;  288,115
236,821;  290,850;  280,165;  283,715
236,913;  292,051;  277,896;  276,315
237,006;  287,160;  271,605;  275,435
237,099;  299,111;  283,896;  285,575
237,191;  316,470;  298,796;  300,225
237,284;  283,220;  267,896;  272,995
237,377;  310,611;  294,725;  297,495
237,470;  302,081;  285,415;  287,875
237,562;  292,410;  276,866;  275,785
237,655;  338,850;  320,945;  324,565
237,747;  309,100;  292,695;  295,845
237,840;  328,600;  313,086;  314,435
237,933;  317,130;  300,445;  301,555
238,025;  317,970;  301,415;  301,595
238,118;  301,790;  282,456;  287,755
238,211;  285,241;  268,155;  272,375
238,303;  287,091;  272,296;  273,415
238,396;  283,201;  268,065;  271,945
238,488;  308,290;  292,625;  291,075
238,581;  300,850;  287,855;  289,445
238,673;  301,891;  285,766;  286,865
238,766;  299,160;  282,635;  283,185
238,859;  290,760;  273,586;  276,105
238,951;  295,091;  281,095;  282,835
239,044;  294,690;  276,496;  279,525
239,136;  285,780;  269,035;  271,705
239,229;  297,241;  280,665;  283,435
239,321;  290,760;  271,255;  276,105
239,414;  306,060;  289,875;  292,345
239,506;  301,750;  284,625;  290,655
239,599;  333,931;  316,315;  315,935
239,691;  304,480;  287,945;  287,755
239,784;  319,000;  301,926;  304,175
239,876;  310,671;  295,005;  294,715
239,969;  304,181;  284,426;  288,635
240,061;  287,730;  269,505;  272,655
240,153;  297,130;  276,776;  278,405
240,246;  302,030;  287,635;  287,925
240,338;  327,940;  315,285;  314,405
240,431;  286,810;  268,896;  270,455
240,523;  283,290;  269,315;  270,665
240,615;  316,901;  299,086;  301,495
240,708;  329,190;  309,945;  312,145
240,800;  303,350;  286,956;  289,175
240,893;  287,250;  272,216;  274,965
240,985;  306,861;  286,116;  289,995
241,077;  285,991;  269,866;  271,905
241,170;  314,241;  300,355;  300,805
241,262;  311,070;  293,695;  290,825
241,354;  272,111;  252,305;  253,985
241,447;  299,760;  281,326;  283,905
241,539;  286,190;  266,746;  270,745
241,631;  334,931;  314,366;  317,275
241,724;  281,801;  259,135;  260,655
241,816;  297,750;  279,385;  281,545
241,908;  294,500;  275,056;  280,445
242,000;  292,100;  277,625;  279,505
242,093;  296,111;  277,725;  280,745
242,185;  297,681;  277,736;  277,535
242,277;  290,451;  274,695;  277,115
242,369;  299,711;  282,146;  286,335
242,462;  291,040;  274,405;  274,215
242,554;  297,401;  277,146;  281,105
242,646;  300,320;  283,146;  286,575
242,738;  320,560;  303,255;  307,195
242,830;  277,841;  259,026;  260,415
242,923;  311,771;  297,035;  299,015
243,015;  288,671;  268,655;  266,675
243,107;  288,461;  267,676;  271,255
243,199;  293,671;  276,345;  278,365
243,291;  289,211;  272,125;  276,215
243,383;  270,060;  254,826;  256,465
243,476;  282,220;  269,435;  268,005
243,568;  296,500;  280,915;  284,885
243,660;  292,560;  273,385;  279,575
243,752;  300,060;  279,796;  287,275
243,844;  317,641;  300,766;  302,705
243,936;  307,250;  291,956;  293,555
244,028;  319,741;  304,796;  307,475
244,120;  270,341;  254,346;  255,525
244,212;  305,301;  293,826;  293,755
244,305;  274,810;  268,496;  267,935
244,397;  304,361;  289,165;  291,675
244,489;  319,241;  304,276;  307,925
244,581;  314,671;  299,255;  300,795
244,673;  299,651;  281,806;  283,225
244,765;  305,660;  286,035;  290,565
244,857;  300,560;  284,986;  287,335
244,949;  299,211;  283,956;  284,945
245,041;  263,371;  250,865;  255,005
245,133;  311,380;  293,695;  296,625
245,225;  292,361;  277,915;  280,695
245,317;  303,461;  289,456;  289,025
245,409;  280,301;  263,755;  269,375
245,501;  302,130;  288,496;  293,045
245,593;  298,591;  286,255;  290,055
245,685;  299,801;  285,405;  288,735
245,776;  300,260;  285,945;  287,235
245,868;  279,961;  271,276;  272,565
245,960;  277,371;  265,875;  263,405
246,052;  319,241;  310,766;  310,445
246,144;  305,701;  294,165;  294,205
246,236;  293,651;  283,576;  283,565
246,328;  304,310;  291,345;  293,965
246,420;  296,361;  279,746;  280,855
246,512;  319,961;  308,236;  310,455
246,604;  296,521;  282,526;  286,825
246,695;  284,051;  273,345;  272,135
246,787;  310,940;  293,526;  301,145
246,879;  305,451;  292,716;  297,145
246,971;  310,440;  299,276;  300,965
247,063;  292,190;  273,255;  278,605
247,155;  312,801;  294,516;  297,195
247,246;  295,630;  283,266;  283,715
247,338;  301,871;  288,116;  294,265
247,430;  312,861;  299,945;  303,475
247,522;  312,290;  297,546;  300,555
247,613;  312,630;  296,586;  299,675
247,705;  306,201;  286,896;  288,445
247,797;  324,510;  305,776;  307,475
247,889;  315,850;  294,706;  295,475
247,980;  319,750;  285,676;  291,995
248,072;  328,961;  282,845;  285,895
248,164;  349,521;  293,216;  298,385
248,256;  302,341;  271,366;  274,105
248,347;  324,171;  309,785;  311,065
248,439;  297,780;  283,165;  282,675
248,531;  319,250;  303,885;  304,835
248,622;  318,871;  307,206;  308,325
248,714;  292,591;  276,945;  278,365
248,806;  308,641;  293,655;  298,015
248,897;  307,250;  291,535;  292,985
248,989;  277,711;  263,956;  263,855
249,081;  294,130;  283,355;  284,905
249,172;  309,130;  289,926;  295,135
249,264;  287,371;  272,076;  273,435
249,356;  288,241;  269,326;  273,745
249,447;  302,841;  282,176;  284,525
249,539;  294,880;  283,086;  284,645
249,630;  310,861;  289,875;  288,495
249,722;  329,641;  313,276;  315,395
249,813;  300,060;  280,496;  284,125
249,905;  306,820;  289,426;  293,665
249,997;  302,151;  281,445;  280,615
250,088;  306,091;  282,255;  288,985
250,180;  306,530;  283,695;  284,575
250,271;  305,891;  281,195;  280,335
250,363;  338,371;  319,105;  320,755
250,454;  295,780;  273,035;  275,615
250,546;  307,850;  285,926;  289,415
250,637;  285,220;  264,445;  261,845
250,729;  291,750;  266,505;  269,555
250,820;  317,831;  289,915;  292,965
250,912;  288,621;  262,355;  267,085
251,003;  303,201;  278,396;  280,475
251,095;  305,290;  282,086;  284,555
251,186;  296,461;  271,415;  274,775
251,277;  300,301;  271,986;  275,265
251,369;  302,491;  275,975;  275,105
251,460;  301,250;  271,456;  273,815
251,552;  310,350;  278,475;  279,655
251,643;  304,600;  268,796;  267,375
251,735;  305,081;  265,246;  267,375
251,826;  299,980;  258,016;  263,245
251,917;  326,181;  278,035;  279,115
252,009;  327,151;  273,396;  275,605
252,100;  333,130;  281,426;  283,345
252,191;  352,951;  289,996;  292,015
252,283;  348,641;  265,095;  267,705
252,374;  371,181;  278,296;  278,375
252,465;  394,871;  295,405;  298,605
252,557;  391,560;  283,576;  286,365
252,648;  390,091;  265,146;  268,635
252,739;  424,630;  280,516;  282,125
252,831;  422,621;  270,836;  280,355
252,922;  461,560;  282,296;  280,045
253,013;  505,671;  273,956;  284,285
253,104;  567,360;  270,076;  270,335
253,196;  682,541;  271,366;  271,175
253,287;  839,440;  281,836;  277,135
253,378; 1229,041;  276,276;  277,975
253,469; 3824,591;  272,385;  276,445
253,561;21662,451;  273,496;  278,855
253,652;43123,730;  282,266;  280,015
253,743; 6266,831;  276,216;  280,985
253,834;  620,851;  259,146;  265,875
253,926;  500,000;  262,605;  267,485
254,017;  479,850;  284,236;  290,235
254,108;  448,991;  291,836;  290,565
254,199;  431,010;  285,326;  291,185
254,290;  435,431;  312,725;  313,865
254,381;  414,910;  287,076;  291,155
254,472;  413,000;  291,935;  300,495
254,564;  415,301;  312,766;  307,565
254,655;  393,970;  304,755;  308,105
254,746;  351,160;  264,896;  264,025
254,837;  379,540;  293,105;  298,435
254,928;  356,991;  266,836;  271,975
255,019;  365,500;  283,505;  286,805
255,110;  370,880;  300,165;  301,665
255,201;  353,260;  281,155;  287,655
255,292;  381,371;  312,706;  316,275
255,383;  347,961;  275,785;  275,725
255,474;  339,711;  273,306;  273,095
255,566;  351,970;  283,926;  286,645
255,657;  343,451;  298,556;  302,445
255,748;  314,820;  271,415;  278,125
255,839;  320,521;  280,695;  282,485
255,930;  328,410;  287,866;  289,735
256,021;  336,841;  298,845;  298,115
256,112;  316,201;  278,456;  278,735
256,203;  345,651;  311,866;  313,365
256,294;  327,160;  293,496;  299,575
256,384;  307,361;  270,565;  275,715
256,475;  316,810;  290,996;  294,595
256,566;  306,730;  281,246;  287,825
256,657;  300,801;  278,945;  278,915
256,748;  299,480;  281,285;  284,675
256,839;  292,181;  274,426;  273,555
256,930;  298,720;  279,165;  283,055
257,021;  327,921;  304,155;  306,465
257,112;  323,500;  304,926;  309,235
257,203;  275,591;  258,445;  259,825
257,294;  272,790;  254,465;  262,175
257,385;  308,121;  288,526;  294,205
257,475;  296,790;  279,135;  278,545
257,566;  307,600;  287,586;  292,255
257,657;  287,190;  269,595;  270,025
257,748;  287,070;  275,935;  276,095
257,839;  296,190;  287,915;  286,025
257,930;  300,820;  285,736;  290,395
258,020;  281,660;  269,716;  271,535
258,111;  277,560;  262,225;  263,255
258,202;  302,621;  288,326;  289,935
258,293;  293,480;  284,655;  285,305
258,384;  320,040;  305,595;  307,665
258,474;  299,341;  288,676;  291,995
258,565;  282,350;  271,635;  273,435
258,656;  302,581;  292,966;  295,145
258,747;  285,931;  271,475;  275,425
258,837;  286,451;  274,246;  273,695
258,928;  292,901;  275,785;  278,605
259,019;  280,100;  268,415;  270,595
259,109;  280,820;  269,685;  269,425
259,200;  296,551;  286,105;  289,815
259,291;  282,010;  269,975;  271,655
259,381;  302,681;  293,026;  295,635
259,472;  306,780;  295,796;  296,545
259,563;  315,010;  303,065;  305,845
259,653;  292,391;  278,296;  281,385
259,744;  277,940;  268,826;  267,735
259,835;  314,290;  300,975;  302,815
259,925;  283,091;  271,505;  277,075
260,016;  295,671;  286,746;  287,585
260,107;  272,910;  258,035;  264,715
260,197;  293,201;  283,975;  286,325
260,288;  286,280;  274,565;  279,155
260,378;  277,980;  267,195;  271,275
260,469;  301,081;  285,915;  288,765
260,560;  277,151;  266,146;  269,495
260,650;  285,060;  271,736;  275,665
260,741;  288,190;  276,366;  279,035
260,831;  283,021;  272,855;  275,905
260,922;  275,301;  266,206;  269,545
261,012;  283,070;  277,665;  278,255
261,103;  308,371;  301,785;  302,875
261,193;  310,111;  302,086;  303,915
261,284;  279,871;  271,806;  273,005
261,374;  307,260;  296,385;  303,855
261,465;  296,910;  287,755;  289,435
261,555;  291,660;  282,255;  280,715
261,646;  298,951;  292,475;  294,375
261,736;  296,681;  287,435;  290,535
261,827;  291,461;  283,716;  284,935
261,917;  319,621;  311,736;  311,595
262,007;  293,310;  283,986;  288,075
262,098;  291,801;  289,445;  287,725
262,188;  338,410;  326,655;  333,475
262,279;  305,931;  300,185;  299,795
262,369;  294,190;  286,285;  289,225
262,459;  296,000;  288,246;  290,365
262,550;  308,551;  303,266;  301,565
262,640;  281,181;  273,005;  276,555
262,731;  303,611;  300,935;  299,335
262,821;  317,630;  310,535;  312,255
262,911;  305,581;  297,875;  298,285
263,002;  293,880;  289,625;  290,825
263,092;  312,810;  303,956;  306,295
263,182;  291,310;  284,806;  285,755
263,273;  290,701;  285,426;  289,395
263,363;  303,871;  300,746;  299,385
263,453;  275,100;  267,375;  268,605
263,543;  298,491;  289,815;  289,615
263,634;  270,790;  266,516;  266,365
263,724;  299,910;  292,586;  293,065
263,814;  312,801;  308,706;  308,885
263,904;  290,630;  281,966;  285,905
263,995;  328,151;  322,276;  322,325
264,085;  300,380;  295,855;  294,575
264,175;  300,451;  296,706;  296,385
264,265;  322,760;  321,105;  321,865
264,356;  277,250;  270,466;  274,385
264,446;  317,070;  308,996;  307,575
264,536;  301,581;  294,026;  297,515
264,626;  324,530;  318,486;  320,175
264,716;  303,810;  298,435;  303,275
264,806;  315,801;  308,776;  310,415
264,897;  262,901;  258,135;  258,615
264,987;  311,310;  303,535;  304,475
265,077;  314,980;  287,046;  292,545
265,167;  372,310;  310,216;  311,575
265,257;  335,480;  290,445;  290,535
265,347;  327,801;  294,336;  295,795
265,437;  325,010;  296,176;  300,635
265,527;  318,030;  293,155;  294,765
265,617;  289,581;  279,875;  285,145
265,708;  322,391;  314,216;  314,825
265,798;  312,991;  305,415;  307,055
265,888;  308,681;  300,716;  305,545
265,978;  296,801;  294,496;  295,825
266,068;  316,760;  310,155;  315,855
266,158;  298,081;  294,005;  297,205
266,248;  280,190;  274,016;  276,865
266,338;  318,831;  313,035;  314,815
266,428;  306,701;  300,635;  302,655
266,518;  315,861;  311,405;  315,615
266,608;  300,121;  299,725;  294,215
266,698;  280,760;  273,586;  276,245
266,788;  282,681;  274,456;  277,745
266,878;  332,831;  325,776;  330,865
266,968;  311,480;  306,725;  309,425
267,058;  301,600;  297,375;  302,895
267,147;  307,491;  301,845;  302,905
267,237;  301,070;  291,815;  295,765
267,327;  290,341;  286,755;  287,895
267,417;  307,181;  301,225;  303,385
267,507;  295,290;  292,176;  294,215
267,597;  285,521;  282,026;  283,655
267,687;  289,201;  285,165;  287,755
267,777;  291,560;  283,986;  284,615
267,867;  316,780;  312,125;  312,585
267,956;  306,431;  302,466;  304,005
268,046;  311,010;  305,466;  310,865
268,136;  302,961;  296,875;  298,905
268,226;  280,350;  274,885;  274,965
268,316;  284,290;  280,766;  280,845
268,406;  294,121;  289,516;  287,595
268,495;  286,810;  284,415;  287,935
268,585;  310,211;  306,716;  309,605
268,675;  287,201;  284,336;  285,535
268,765;  304,701;  296,355;  300,115
268,854;  292,871;  285,935;  286,715
268,944;  297,480;  291,646;  293,805
269,034;  290,081;  283,986;  289,715
269,124;  290,861;  287,216;  290,705
269,213;  291,350;  286,336;  285,525
269,303;  291,280;  290,466;  288,585
269,393;  300,891;  299,845;  298,345
269,483;  304,801;  300,966;  302,735
269,572;  287,641;  282,875;  284,665
269,662;  285,341;  276,105;  283,315
269,752;  317,331;  312,736;  315,705
269,841;  274,320;  266,046;  269,455
269,931;  287,470;  281,586;  283,075
270,021;  306,030;  300,766;  304,675
270,110;  291,681;  285,695;  288,925
270,200;  298,741;  291,665;  299,445
270,289;  288,641;  280,785;  281,105
270,379;  307,621;  301,466;  302,775
270,469;  294,301;  290,556;  289,955
270,558;  306,940;  303,655;  302,185
270,648;  288,160;  282,785;  284,885
270,737;  292,611;  288,526;  291,525
270,827;  314,861;  310,185;  313,455
270,916;  293,980;  286,935;  289,915
271,006;  296,820;  293,475;  292,885
271,096;  321,871;  317,005;  317,215
271,185;  292,910;  289,896;  289,145
271,275;  309,621;  300,706;  303,575
271,364;  286,730;  281,535;  285,725
271,454;  316,790;  308,255;  315,275
271,543;  297,521;  296,935;  297,745
271,633;  298,871;  293,926;  292,835
271,722;  298,250;  292,255;  296,455
271,812;  290,560;  286,296;  289,275
271,901;  298,151;  292,326;  293,765
271,990;  297,980;  291,836;  290,915
272,080;  292,320;  290,635;  294,915
272,169;  304,070;  301,905;  302,555
272,259;  298,271;  293,225;  292,695
272,348;  310,660;  305,796;  308,535
272,438;  296,521;  296,935;  293,635
272,527;  308,201;  303,996;  304,365
272,616;  305,560;  301,866;  305,295
272,706;  328,611;  320,935;  323,195
272,795;  320,500;  314,076;  315,755
272,884;  301,280;  297,076;  299,515
272,974;  325,010;  317,975;  319,965
273,063;  339,070;  338,206;  337,765
273,152;  309,910;  310,306;  307,735
273,242;  323,720;  320,276;  324,915
273,331;  324,421;  319,315;  322,835
273,420;  308,341;  301,105;  310,255
273,510;  314,040;  307,355;  308,155
273,599;  306,521;  303,255;  306,195
273,688;  305,100;  302,605;  301,885
273,778;  286,961;  285,065;  287,095
273,867;  322,780;  320,266;  317,015
273,956;  306,671;  303,725;  303,805
274,045;  277,901;  273,966;  275,965
274,135;  308,600;  303,905;  305,375
274,224;  292,250;  286,516;  290,045
274,313;  309,581;  305,586;  307,745
274,402;  289,991;  284,796;  287,085
274,491;  313,951;  310,975;  312,995
274,581;  305,401;  301,415;  302,765
274,670;  296,551;  293,146;  294,385
274,759;  304,380;  299,405;  300,435
274,848;  282,100;  276,655;  279,925
274,937;  292,341;  289,945;  287,635
275,026;  289,190;  285,616;  287,835
275,116;  323,091;  316,415;  315,805
275,205;  298,711;  266,926;  271,135
275,294;  331,190;  302,315;  304,335
275,383;  304,551;  299,905;  297,985
275,472;  295,540;  290,005;  290,825
275,561;  294,880;  290,505;  290,285
275,650;  314,241;  306,046;  306,435
275,739;  293,880;  294,776;  297,985
275,828;  281,820;  274,635;  277,965
275,917;  313,850;  312,065;  306,825
276,006;  303,701;  295,426;  296,835
276,095;  298,720;  294,526;  298,665
276,184;  310,841;  309,556;  307,945
276,273;  307,201;  303,105;  304,505
276,362;  280,010;  275,896;  278,535
276,451;  293,220;  291,306;  291,915
276,540;  299,060;  295,896;  296,105
276,629;  297,141;  292,576;  293,225
276,718;  272,010;  270,695;  274,545
276,807;  276,280;  271,625;  274,825
276,896;  285,190;  280,526;  284,495
276,985;  291,611;  283,616;  289,365
277,074;  306,871;  299,105;  300,525
277,163;  297,991;  294,746;  299,085
277,252;  278,681;  279,646;  276,465
277,341;  290,880;  281,236;  289,265
277,430;  280,051;  276,845;  279,355
277,519;  306,130;  298,956;  301,695
277,608;  268,671;  266,546;  267,775
277,696;  270,801;  266,975;  269,445
277,785;  287,380;  284,095;  283,485
277,874;  300,910;  299,605;  296,795
277,963;  294,901;  288,155;  289,995
278,052;  268,220;  264,776;  265,525
278,141;  291,111;  288,415;  290,745
278,229;  296,701;  290,146;  291,935
278,318;  275,470;  268,236;  271,495
278,407;  293,741;  285,576;  285,935
278,496;  292,621;  289,915;  291,965
278,585;  306,850;  300,486;  302,275
278,673;  266,951;  263,836;  266,715
278,762;  273,901;  266,176;  270,485
278,851;  289,891;  285,496;  286,035
278,940;  306,921;  303,685;  303,305
279,028;  302,771;  296,306;  299,585
279,117;  292,461;  282,725;  286,655
279,206;  286,030;  279,475;  284,105
279,294;  284,671;  284,396;  286,665
279,383;  292,741;  286,646;  287,335
279,472;  302,371;  298,095;  298,295
279,561;  287,410;  283,355;  284,975
279,649;  314,130;  308,535;  308,935
279,738;  261,491;  255,566;  255,215
279,827;  311,241;  306,785;  308,805
279,915;  275,961;  275,285;  276,335
280,004;  292,760;  286,565;  288,905
280,092;  313,880;  305,236;  306,635
280,181;  287,461;  280,516;  282,605
280,270;  297,310;  277,866;  281,595
280,358;  308,290;  291,366;  288,915
280,447;  273,081;  261,415;  264,455
280,535;  286,201;  276,016;  275,945
280,624;  281,790;  274,185;  276,805
280,713;  285,421;  277,146;  283,385
280,801;  297,841;  293,116;  293,805
280,890;  296,350;  289,716;  295,475
280,978;  285,410;  280,755;  281,945
281,067;  257,630;  250,676;  255,865
281,155;  281,910;  274,855;  275,705
281,244;  323,461;  313,595;  316,445
281,332;  298,081;  290,845;  293,825
281,421;  278,021;  271,605;  273,675
281,509;  288,961;  284,646;  282,415
281,598;  267,850;  262,435;  263,765
281,686;  294,401;  290,776;  288,945
281,775;  290,671;  285,516;  290,815
281,863;  283,190;  278,016;  279,225
281,951;  281,431;  267,665;  270,735
282,040;  312,301;  300,315;  301,115
282,128;  304,980;  288,375;  294,235
282,217;  274,750;  265,926;  266,075
282,305;  305,970;  294,796;  294,045
282,393;  295,980;  286,505;  284,595
282,482;  291,391;  279,535;  283,255
282,570;  281,600;  266,945;  270,215
282,658;  291,600;  276,116;  277,715
282,747;  277,780;  265,026;  267,905
282,835;  315,320;  306,076;  309,035
282,923;  274,111;  264,655;  267,805
283,012;  297,831;  291,366;  296,345
283,100;  275,000;  269,185;  274,675
283,188;  267,671;  261,125;  262,525
283,277;  288,651;  284,336;  284,745
283,365;  278,271;  271,676;  278,375
283,453;  273,760;  264,755;  270,455
283,542;  298,171;  290,896;  293,765
283,630;  279,741;  276,195;  278,595
283,718;  277,310;  271,195;  274,365
283,806;  251,460;  241,706;  247,485
283,894;  279,591;  274,336;  274,395
283,983;  289,510;  282,165;  282,605
284,071;  293,651;  285,285;  291,495
284,159;  312,581;  309,125;  314,805
284,247;  294,690;  287,466;  288,555
284,335;  290,841;  286,935;  287,485
284,424;  291,160;  283,915;  288,465
284,512;  287,371;  283,475;  286,175
284,600;  280,341;  279,415;  280,145
284,688;  320,151;  312,815;  317,115
284,776;  292,260;  286,815;  287,745
284,864;  313,091;  302,125;  308,655
284,952;  295,510;  289,625;  289,025
285,041;  300,040;  298,255;  298,145
285,129;  306,060;  299,435;  302,445
285,217;  306,121;  300,056;  303,885
285,305;  323,451;  318,676;  319,885
285,393;  281,151;  275,776;  278,695
285,481;  298,081;  296,665;  298,405
285,569;  288,391;  282,966;  285,145
285,657;  301,130;  295,165;  296,255
285,745;  295,130;  292,655;  293,125
285,833;  300,230;  289,505;  293,165
285,921;  304,660;  298,116;  300,945
286,009;  306,350;  301,105;  303,655
286,097;  301,331;  298,236;  301,315
286,185;  288,741;  284,405;  284,795
286,273;  283,611;  283,415;  284,655
286,361;  313,901;  307,915;  311,825
286,449;  299,980;  296,195;  294,565
286,537;  305,100;  304,105;  302,085
286,625;  294,530;  291,185;  293,415
286,713;  283,151;  275,806;  280,315
286,801;  308,171;  312,076;  307,795
286,889;  322,241;  319,435;  320,055
286,976;  294,160;  287,905;  291,205
287,064;  311,250;  307,635;  311,875
287,152;  306,630;  303,576;  305,585
287,240;  313,211;  309,185;  308,845
287,328;  292,310;  287,685;  281,755
287,416;  296,361;  290,975;  292,385
287,504;  302,160;  294,435;  298,285
287,591;  305,461;  298,176;  300,225
287,679;  288,271;  286,095;  286,145
287,767;  301,841;  298,206;  296,985
287,855;  307,910;  303,736;  307,515
287,943;  312,440;  306,716;  309,435
288,030;  298,260;  293,456;  291,795
288,118;  323,361;  318,255;  318,995
288,206;  278,421;  274,956;  275,705
288,294;  306,630;  301,986;  304,135
288,382;  306,201;  300,776;  303,615
288,469;  310,611;  304,396;  308,895
288,557;  296,630;  294,095;  292,615
288,645;  324,391;  323,396;  323,315
288,732;  283,510;  278,915;  279,235
288,820;  308,111;  304,576;  306,785
288,908;  309,230;  304,826;  303,915
288,995;  312,861;  310,945;  310,305
289,083;  298,611;  293,026;  292,935
289,171;  332,891;  320,165;  325,565
289,258;  369,241;  322,176;  324,305
289,346;  434,431;  326,266;  329,365
289,434;  314,451;  303,435;  306,185
289,521;  288,730;  280,415;  286,295
289,609;  326,730;  320,426;  325,405
289,697;  318,461;  312,336;  315,125
289,784;  301,491;  295,445;  295,775
289,872;  311,391;  306,905;  313,015
289,959;  287,921;  282,375;  283,415
290,047;  300,051;  296,546;  300,865
290,134;  276,521;  272,665;  273,815
290,222;  311,570;  308,915;  308,665
290,310;  312,461;  304,905;  307,145
290,397;  333,371;  328,505;  332,835
290,485;  293,701;  290,815;  293,005
290,572;  316,051;  313,225;  314,645
290,660;  309,421;  306,385;  306,205
290,747;  297,500;  295,165;  292,775
290,835;  304,621;  299,016;  302,505
290,922;  305,951;  304,016;  305,515
291,009;  303,741;  297,676;  301,715
291,097;  301,301;  297,926;  300,755
291,184;  335,741;  332,716;  338,585
291,272;  289,000;  282,966;  288,375
291,359;  289,581;  283,915;  289,305
291,447;  306,871;  303,086;  304,735
291,534;  327,401;  327,326;  323,005
291,621;  303,431;  302,845;  301,105
291,709;  288,401;  285,716;  283,705
291,796;  317,940;  320,146;  316,555
291,884;  296,021;  291,466;  296,115
291,971;  322,220;  315,065;  320,295
292,058;  292,530;  288,725;  288,985
292,146;  300,790;  293,746;  297,955
292,233;  288,891;  285,426;  284,765
292,320;  296,331;  294,306;  297,685
292,408;  315,611;  309,086;  308,565
292,495;  301,391;  290,565;  293,085
292,582;  290,310;  286,845;  287,375
292,669;  285,621;  281,415;  286,055
292,757;  282,570;  282,176;  283,865
292,844;  318,371;  312,935;  313,175
292,931;  280,701;  275,176;  277,485
293,018;  293,341;  291,516;  289,915
293,106;  306,570;  299,966;  303,035
293,193;  274,940;  272,415;  274,385
293,280;  304,220;  297,255;  303,635
293,367;  296,671;  296,956;  295,215
293,455;  297,961;  293,185;  294,155
293,542;  283,091;  275,695;  281,445
293,629;  282,350;  279,035;  281,855
293,716;  314,301;  305,646;  311,195
293,803;  291,831;  287,105;  287,695
293,890;  313,301;  310,336;  312,555
293,978;  293,970;  284,105;  290,755
294,065;  289,970;  286,725;  284,345
294,152;  305,391;  302,385;  304,355
294,239;  278,921;  275,646;  274,625
294,326;  292,801;  286,746;  290,635
294,413;  280,201;  278,046;  278,465
294,500;  296,220;  292,586;  295,255
294,587;  288,630;  283,915;  287,195
294,674;  309,521;  305,875;  306,925
294,761;  291,121;  288,896;  287,945
294,848;  290,621;  286,866;  294,115
294,935;  294,091;  290,746;  290,555
295,022;  277,921;  272,396;  274,105
295,109;  267,741;  258,466;  262,665
295,196;  296,521;  291,405;  295,265
295,283;  281,480;  281,176;  278,745
295,370;  312,540;  308,975;  312,155
295,457;  294,891;  289,986;  290,435
295,544;  292,000;  285,105;  287,985
295,631;  295,820;  290,165;  295,805
295,718;  276,901;  272,676;  274,015
295,805;  300,151;  296,225;  296,685
295,892;  300,470;  300,005;  304,445
295,979;  298,260;  291,266;  292,755
296,066;  300,130;  293,996;  296,145
296,153;  301,891;  296,026;  296,355
296,240;  309,271;  299,206;  300,535
296,327;  298,730;  285,206;  285,615
296,413;  321,040;  301,285;  305,075
296,500;  339,130;  302,755;  305,145
296,587;  512,880;  288,616;  286,065
296,674; 1640,340;  294,396;  297,335
296,761;  806,170;  300,095;  298,245
296,848;  308,831;  281,956;  285,815
296,934;  302,320;  290,966;  295,265
297,021;  297,621;  292,565;  292,975
297,108;  285,391;  276,366;  280,895
297,195;  295,841;  291,466;  294,705
297,282;  292,980;  286,535;  286,195
297,368;  314,470;  310,026;  305,975
297,455;  287,000;  279,155;  283,145
297,542;  318,341;  311,375;  313,235
297,629;  302,310;  299,016;  300,205
297,715;  309,190;  308,285;  310,385
297,802;  302,951;  300,466;  303,285
297,889;  314,621;  311,716;  313,025
297,975;  329,401;  322,836;  323,685
298,062;  317,540;  310,505;  312,995
298,149;  280,771;  273,505;  274,905
298,235;  298,220;  291,135;  294,075
298,322;  299,190;  294,806;  292,785
298,409;  314,741;  311,195;  312,715
298,495;  287,051;  285,435;  283,435
298,582;  316,540;  307,516;  308,065
298,669;  296,921;  290,526;  294,245
298,755;  301,810;  299,065;  302,235
298,842;  307,280;  304,755;  309,095
298,928;  303,931;  303,855;  304,595
299,015;  299,000;  294,896;  296,705
299,102;  325,681;  318,986;  320,565
299,188;  317,540;  315,956;  316,045
299,275;  311,600;  309,926;  309,365
299,361;  283,280;  278,875;  281,665
299,448;  316,421;  312,466;  310,885
299,534;  314,861;  312,355;  312,735
299,621;  310,230;  304,655;  303,865
299,707;  307,790;  299,016;  304,675
299,794;  323,051;  319,885;  319,685
299,880;  322,070;  317,076;  318,325
299,967;  298,371;  296,345;  296,295
300,053;  302,611;  295,935;  299,065
300,140;  326,841;  323,086;  328,875
300,226;  315,271;  313,885;  313,595
300,312;  307,051;  307,276;  306,695
300,399;  307,750;  305,505;  308,465
300,485;  301,070;  297,776;  301,725
300,572;  284,720;  281,655;  281,655
300,658;  298,961;  297,216;  294,585
300,744;  312,141;  310,706;  311,315
300,831;  319,171;  313,595;  318,275
300,917;  323,230;  321,676;  320,915
301,004;  316,021;  311,556;  311,015
301,090;  283,391;  277,785;  280,095
301,176;  288,320;  284,255;  288,205
301,263;  317,581;  313,676;  314,925
301,349;  294,320;  289,475;  293,305
301,435;  288,660;  284,276;  285,095
301,521;  318,871;  314,625;  313,245
301,608;  318,211;  314,695;  315,515
301,694;  301,591;  297,896;  300,535
301,780;  307,720;  303,046;  298,285
301,867;  286,980;  280,836;  285,265
301,953;  308,361;  296,595;  301,165
302,039;  383,310;  295,116;  297,515
302,125;  539,721;  298,445;  304,125
302,211;  364,480;  332,926;  334,115
302,298;  352,051;  301,926;  305,295
302,384;  298,081;  281,116;  287,095
302,470;  295,551;  289,505;  291,305
302,556;  307,611;  301,935;  305,645
302,642;  296,730;  293,456;  295,155
302,729;  300,310;  289,306;  293,525
302,815;  315,190;  317,966;  319,775
302,901;  296,401;  296,475;  298,745
302,987;  314,181;  307,716;  308,245
303,073;  304,970;  304,185;  302,795
303,159;  301,901;  296,945;  298,695
303,245;  288,831;  284,336;  290,495
303,331;  288,361;  283,486;  286,455
303,417;  298,371;  294,556;  296,145
303,503;  314,510;  310,046;  312,155
303,590;  289,991;  289,146;  291,705
303,676;  302,910;  299,505;  300,385
303,762;  290,750;  287,185;  287,835
303,848;  314,690;  311,026;  312,055
303,934;  306,591;  304,915;  307,775
304,020;  305,380;  301,796;  304,745
304,106;  314,000;  309,975;  314,015
304,192;  298,361;  291,796;  296,765
304,278;  305,521;  302,896;  304,455
304,364;  327,630;  323,026;  324,755
304,450;  307,361;  301,496;  304,095
304,535;  307,230;  304,005;  304,245
304,621;  307,641;  301,565;  302,205
304,707;  307,500;  306,296;  307,635
304,793;  319,451;  318,625;  318,575
304,879;  310,991;  306,776;  310,585
304,965;  313,581;  312,845;  313,365
305,051;  313,380;  308,616;  311,355
305,137;  321,951;  318,146;  324,235
305,223;  295,591;  291,445;  293,725
305,309;  318,051;  313,496;  317,755
305,394;  312,280;  311,996;  311,465
305,480;  302,591;  299,426;  304,775
305,566;  310,921;  309,355;  310,525
305,652;  316,181;  313,605;  317,885
305,738;  351,280;  349,206;  353,435
305,824;  316,801;  316,016;  315,095
305,909;  327,630;  323,815;  325,155
305,995;  291,290;  289,595;  290,025
306,081;  345,951;  348,345;  350,435
306,167;  309,921;  303,966;  307,875
306,252;  329,651;  324,375;  325,505
306,338;  340,000;  331,366;  335,515
306,424;  310,271;  306,595;  307,415
306,510;  321,091;  316,105;  319,795
306,595;  324,701;  323,685;  322,125
306,681;  319,021;  316,926;  318,895
306,767;  309,750;  305,336;  309,425
306,852;  335,741;  328,255;  331,375
306,938;  327,030;  325,796;  325,905
307,024;  303,801;  302,875;  304,755
307,109;  336,010;  336,065;  338,965
307,195;  322,171;  316,326;  318,385
307,281;  323,010;  318,716;  318,575
307,366;  316,901;  313,345;  310,455
307,452;  318,810;  312,426;  316,335
307,537;  297,921;  296,776;  298,485
307,623;  296,910;  292,105;  296,985
307,709;  311,260;  309,885;  310,795
307,794;  291,951;  288,576;  291,835
307,880;  323,951;  320,236;  319,735
307,965;  311,530;  307,456;  307,525
308,051;  295,910;  297,195;  298,065
308,136;  299,401;  297,165;  296,745
308,222;  303,991;  300,366;  302,045
308,307;  297,871;  295,116;  296,645
308,393;  299,741;  295,535;  300,335
308,478;  320,780;  321,826;  318,975
308,564;  293,891;  295,516;  288,925
308,649;  307,241;  308,496;  308,295
308,735;  303,901;  294,155;  300,535
308,820;  320,151;  320,655;  319,455
308,906;  299,730;  291,625;  300,515
308,991;  340,350;  341,076;  338,375
309,076;  321,060;  319,336;  320,645
309,162;  284,030;  283,945;  283,805
309,247;  312,030;  309,945;  308,415
309,333;  298,141;  291,646;  297,855
309,418;  303,850;  298,665;  301,955
309,503;  299,910;  297,646;  300,235
309,589;  306,730;  303,725;  305,345
309,674;  295,111;  290,945;  289,235
309,759;  306,440;  303,315;  304,195
309,845;  314,171;  311,016;  312,415
309,930;  311,021;  305,966;  307,375
310,015;  279,831;  276,095;  276,835
310,101;  316,361;  315,616;  319,905
310,186;  290,160;  285,426;  288,565
310,271;  302,341;  297,296;  298,295
310,357;  296,350;  297,526;  296,455
310,442;  307,841;  302,445;  303,865
310,527;  302,801;  297,766;  301,125
310,612;  280,760;  278,195;  281,425
310,698;  320,201;  319,725;  321,135
310,783;  306,070;  301,176;  302,685
310,868;  297,891;  294,285;  295,125
310,953;  288,771;  284,165;  285,195
311,038;  313,701;  311,146;  310,075
311,124;  296,341;  294,635;  290,925
311,209;  281,320;  276,736;  277,355
311,294;  316,121;  310,206;  312,575
311,379;  281,480;  276,785;  277,345
311,464;  301,350;  297,405;  297,635
311,549;  290,621;  282,385;  284,505
311,634;  292,111;  290,396;  286,805
311,719;  324,621;  316,016;  315,415
311,805;  296,151;  289,266;  291,605
311,890;  303,771;  295,165;  295,925
311,975;  294,030;  281,526;  286,055
312,060;  308,720;  298,146;  302,435
312,145;  292,211;  277,586;  276,025
312,230;  317,371;  290,815;  296,495
312,315;  332,201;  294,065;  296,045
312,400;  404,461;  296,396;  299,795
312,485; 1579,090;  290,535;  292,475
312,570; 1255,700;  277,125;  279,615
312,655;  351,350;  308,176;  313,325
312,740;  332,530;  301,616;  302,005
312,825;  337,551;  304,105;  307,725
312,910;  357,051;  307,736;  309,235
312,995;  441,810;  296,236;  298,245
313,080; 1951,630;  285,655;  286,805
313,165; 2186,361;  303,565;  305,305
313,250;  367,181;  287,276;  287,825
313,335;  326,290;  307,435;  312,125
313,419;  284,980;  267,466;  268,635
313,504;  325,651;  313,355;  315,225
313,589;  309,451;  295,216;  297,545
313,674;  315,810;  307,206;  310,085
313,759;  286,720;  281,556;  282,625
313,844;  301,630;  292,776;  291,005
313,929;  301,331;  289,945;  291,695
314,014;  322,760;  313,306;  315,005
314,098;  307,660;  299,035;  300,425
314,183;  268,241;  263,505;  263,795
314,268;  299,431;  296,496;  298,955
314,353;  309,961;  302,026;  306,185
314,438;  313,940;  306,905;  311,515
314,522;  317,051;  309,486;  308,535
314,607;  309,401;  307,565;  307,855
314,692;  307,470;  301,885;  303,855
314,777;  294,540;  291,766;  292,395
314,861;  280,141;  277,285;  276,385
314,946;  320,600;  315,116;  317,565
315,031;  295,690;  291,875;  294,115
315,115;  310,350;  306,206;  308,065
315,200;  316,260;  312,146;  313,065
315,285;  293,341;  289,486;  289,595
315,369;  288,630;  287,945;  288,545
315,454;  315,820;  311,905;  311,025
315,539;  312,790;  310,246;  307,795
315,623;  313,850;  309,426;  313,225
315,708;  335,160;  335,605;  336,825
315,793;  303,681;  297,986;  298,155
315,877;  306,720;  302,975;  305,445
315,962;  291,690;  289,105;  291,925
316,046;  320,630;  317,065;  319,225
316,131;  340,111;  334,516;  337,215
316,216;  310,621;  310,315;  310,785
316,300;  302,880;  303,345;  302,165
316,385;  325,600;  325,315;  324,305
316,469;  334,940;  330,625;  331,955
316,554;  301,690;  296,005;  298,425
316,638;  301,130;  296,725;  301,565
316,723;  294,021;  292,546;  293,795
316,807;  301,290;  299,595;  299,275
316,892;  291,391;  288,975;  289,925
316,976;  318,630;  314,405;  316,505
317,061;  309,660;  306,035;  305,965
317,145;  327,591;  327,655;  325,965
317,230;  324,081;  321,505;  319,905
317,314;  278,040;  275,565;  275,085
317,398;  313,810;  310,706;  312,245
317,483;  292,560;  290,026;  291,085
317,567;  316,720;  315,326;  317,865
317,652;  290,310;  283,526;  286,625
317,736;  308,671;  308,776;  309,285
317,820;  335,211;  329,005;  334,665
317,905;  304,831;  306,706;  307,035
317,989;  296,910;  298,285;  300,875
318,073;  300,470;  298,076;  297,705
318,158;  290,271;  284,966;  285,565
318,242;  300,611;  296,845;  299,095
318,326;  289,600;  283,155;  284,015
318,411;  296,151;  295,125;  296,565
318,495;  287,551;  285,776;  287,165
318,579;  291,641;  288,746;  289,305
318,664;  284,021;  280,315;  284,255
318,748;  305,681;  305,996;  310,145
318,832;  294,790;  290,806;  289,475
318,916;  276,671;  274,785;  277,335
319,001;  298,681;  299,945;  301,485
319,085;  294,250;  292,885;  290,905
319,169;  296,401;  293,396;  294,485
319,253;  290,201;  287,216;  285,525
319,337;  303,600;  306,246;  304,885
319,422;  316,220;  316,125;  313,225
319,506;  288,660;  283,326;  285,905
319,590;  307,030;  303,915;  305,525
319,674;  298,931;  291,926;  295,405
319,758;  300,160;  295,165;  300,215
319,842;  312,000;  306,135;  309,155
319,926;  297,660;  294,815;  295,205
320,010;  268,241;  267,046;  269,575
320,095;  285,841;  280,926;  284,685
320,179;  281,070;  279,125;  281,175
320,263;  288,720;  277,385;  285,805
320,347;  276,081;  271,296;  279,075
320,431;  275,540;  273,435;  274,355
320,515;  299,991;  296,375;  299,935
320,599;  274,651;  269,866;  273,825
320,683;  306,130;  305,706;  305,495
320,767;  267,690;  266,236;  266,205
320,851;  285,380;  281,855;  287,785
320,935;  316,160;  312,565;  318,275
321,019;  290,671;  292,975;  290,075
321,103;  279,801;  278,135;  280,585
321,187;  275,290;  273,165;  273,265
321,271;  296,581;  294,616;  296,825
321,355;  287,280;  281,595;  283,805
321,439;  302,431;  301,216;  301,725
321,523;  282,410;  282,266;  284,705
321,606;  287,701;  287,426;  288,215
321,690;  288,151;  287,026;  288,215
321,774;  294,410;  288,336;  292,205
321,858;  293,201;  292,966;  291,945
321,942;  296,841;  294,276;  298,975
322,026;  285,271;  283,315;  282,695
322,110;  298,280;  293,146;  295,755
322,194;  300,141;  295,355;  301,055
322,277;  287,591;  286,135;  287,285
322,361;  278,211;  278,595;  281,215
322,445;  294,371;  289,315;  291,095
322,529;  298,190;  297,716;  299,645
322,613;  298,560;  297,206;  297,795
322,696;  272,350;  267,695;  272,865
322,780;  286,190;  283,026;  283,485
322,864;  278,160;  272,625;  279,835
322,948;  296,940;  292,326;  295,965
323,031;  282,010;  281,565;  282,215
323,115;  287,130;  284,586;  285,215
323,199;  299,880;  296,565;  299,105
323,282;  308,540;  307,496;  310,065
323,366;  293,331;  287,296;  293,625
323,450;  278,961;  273,496;  275,835
323,533;  319,260;  314,576;  317,415
323,617;  273,521;  268,695;  271,585
323,701;  284,741;  281,105;  283,575
323,784;  296,250;  292,576;  294,205
323,868;  302,621;  297,866;  299,875
323,952;  296,201;  290,966;  294,175
324,035;  308,100;  305,926;  310,825
324,119;  299,841;  295,466;  298,455
324,202;  292,290;  286,836;  292,745
324,286;  289,730;  284,986;  286,605
324,370;  296,060;  293,105;  296,765
324,453;  302,630;  299,616;  301,745
324,537;  297,560;  294,426;  298,035
324,620;  291,060;  286,635;  291,765
324,704;  276,880;  270,445;  276,525
324,787;  295,671;  294,875;  296,265
324,871;  313,040;  310,986;  315,255
324,954;  315,331;  312,246;  315,985
325,038;  312,720;  306,466;  306,985
325,121;  312,551;  308,695;  312,075
325,205;  295,861;  290,396;  293,295
325,288;  285,880;  279,556;  285,675
325,371;  302,220;  298,945;  302,395
325,455;  315,431;  314,026;  312,045
325,538;  287,121;  281,516;  287,185
325,622;  327,271;  320,806;  321,295
325,705;  298,461;  297,716;  298,675
325,788;  316,801;  313,625;  316,645
325,872;  304,431;  300,796;  300,745
325,955;  325,201;  319,845;  325,065
326,039;  311,810;  309,576;  312,795
326,122;  313,510;  310,746;  311,665
326,205;  311,040;  311,806;  310,235
326,289;  318,121;  313,986;  319,245
326,372;  303,871;  294,746;  299,195
326,455;  326,961;  323,095;  324,405
326,538;  314,850;  312,336;  316,545
326,622;  321,690;  318,396;  320,075
326,705;  288,901;  287,315;  287,875
326,788;  324,790;  321,266;  322,405
326,871;  319,630;  315,576;  317,965
326,955;  317,530;  313,836;  315,225
327,038;  310,651;  310,116;  310,855
327,121;  306,660;  301,516;  307,855
327,204;  316,891;  313,216;  314,045
327,288;  330,931;  328,956;  332,375
327,371;  296,500;  288,185;  296,955
327,454;  315,850;  313,065;  313,845
327,537;  299,470;  299,815;  302,435
327,620;  332,301;  322,935;  330,145
327,703;  309,901;  309,076;  310,615
327,786;  314,521;  311,076;  312,115
327,870;  325,570;  323,155;  328,715
327,953;  303,980;  301,155;  305,785
328,036;  297,940;  293,105;  299,035
328,119;  320,530;  317,576;  321,135
328,202;  307,241;  301,885;  305,875
328,285;  327,440;  326,776;  329,015
328,368;  320,451;  320,935;  322,625
328,451;  324,301;  320,635;  322,565
328,534;  306,701;  301,266;  307,075
328,617;  309,901;  305,676;  311,785
328,700;  328,880;  326,505;  326,695
328,783;  322,391;  320,785;  322,875
328,866;  319,861;  314,095;  319,935
328,949;  322,750;  319,966;  326,555
329,032;  304,440;  297,826;  300,605
329,115;  297,301;  290,905;  295,945
329,198;  287,341;  282,956;  283,785
329,281;  301,421;  299,336;  298,465
329,364;  317,741;  316,246;  319,245
329,447;  311,581;  307,176;  309,255
329,530;  331,030;  328,155;  328,175
329,613;  302,570;  300,565;  306,725
329,696;  332,771;  326,806;  330,715
329,778;  316,220;  311,306;  316,915
329,861;  300,060;  295,236;  299,565
329,944;  329,861;  321,685;  327,225
330,027;  314,461;  311,576;  315,115
330,110;  313,521;  307,595;  311,705
330,193;  298,341;  295,306;  299,955
330,275;  314,521;  312,296;  315,835
330,358;  294,581;  291,776;  296,185
330,441;  327,530;  323,586;  325,365
330,524;  311,621;  305,216;  311,095
330,607;  305,730;  304,345;  306,905
330,689;  312,540;  313,105;  314,535
330,772;  313,310;  311,105;  312,425
330,855;  328,030;  325,065;  327,855
330,938;  318,241;  312,315;  321,275
331,020;  319,730;  317,176;  320,535
331,103;  297,160;  293,035;  294,505
331,186;  306,741;  305,146;  307,085
331,268;  300,121;  293,565;  298,695
331,351;  318,570;  313,026;  316,455
331,434;  310,750;  308,385;  312,645
331,516;  320,891;  319,076;  321,185
331,599;  307,630;  297,095;  301,425
331,682;  311,091;  310,736;  310,985
331,764;  294,551;  293,326;  297,915
331,847;  319,421;  313,716;  315,705
331,929;  293,820;  290,026;  293,225
332,012;  313,521;  309,625;  310,055
332,095;  327,500;  323,306;  326,625
332,177;  321,320;  320,806;  324,285
332,260;  327,010;  327,526;  328,035
332,342;  313,341;  309,246;  314,445
332,425;  311,771;  312,516;  311,505
332,507;  311,371;  308,526;  311,575
332,590;  290,810;  287,595;  291,655
332,672;  297,841;  294,885;  298,455
332,755;  309,201;  306,855;  311,605
332,837;  308,081;  310,716;  312,255
332,920;  313,651;  309,076;  315,155
333,002;  327,081;  325,676;  328,895
333,085;  314,070;  313,375;  315,165
333,167;  301,130;  296,875;  298,575
333,249;  298,070;  294,526;  298,145
333,332;  295,730;  293,296;  297,715
333,414;  304,980;  300,035;  304,875
333,497;  309,380;  300,255;  302,305
333,579;  303,260;  300,996;  306,375
333,661;  323,070;  319,706;  320,745
333,744;  296,831;  293,695;  297,125
333,826;  309,790;  305,766;  306,065
333,908;  317,901;  313,896;  316,665
333,991;  308,301;  291,266;  291,545
334,073;  467,951;  312,706;  318,525
334,155;  358,341;  304,086;  305,525
334,238;  324,591;  318,576;  326,145
334,320;  302,801;  297,046;  300,585
334,402;  307,991;  302,996;  304,895
334,485;  305,771;  303,655;  304,015
334,567;  302,230;  299,776;  301,975
334,649;  283,551;  278,426;  282,925
334,731;  318,551;  313,456;  317,305
334,813;  317,901;  315,605;  320,355
334,896;  290,230;  290,185;  294,595
334,978;  307,940;  309,165;  302,585
335,060;  310,070;  304,255;  304,235
335,142;  302,961;  301,665;  302,275
335,224;  310,771;  309,766;  311,745
335,307;  299,910;  297,456;  298,965
335,389;  317,510;  310,385;  317,305
335,471;  302,871;  299,896;  306,115
335,553;  320,750;  319,866;  318,905
335,635;  319,091;  312,836;  315,315
335,717;  300,070;  298,195;  300,145
335,799;  323,331;  322,695;  323,585
335,881;  284,220;  278,385;  282,845
335,963;  293,720;  291,796;  293,005
336,045;  296,391;  295,516;  301,085
336,128;  276,671;  270,945;  275,225
336,210;  291,290;  288,996;  292,295
336,292;  300,021;  297,845;  300,615
336,374;  306,371;  300,956;  306,155
336,456;  289,861;  285,616;  288,495
336,538;  306,040;  303,165;  304,435
336,620;  311,790;  310,576;  312,205
336,702;  296,181;  294,766;  294,235
336,783;  306,290;  302,556;  304,225
336,865;  308,910;  304,176;  305,725
336,947;  312,690;  308,486;  311,205
337,029;  284,970;  281,826;  282,945
337,111;  318,100;  316,266;  316,735
337,193;  284,391;  280,986;  284,795
337,275;  311,720;  310,815;  314,535
337,357;  324,021;  318,815;  324,805
337,439;  307,841;  305,255;  310,655
337,521;  280,500;  277,225;  280,915
337,602;  300,100;  298,435;  301,085
337,684;  317,730;  315,635;  317,455
337,766;  315,410;  312,266;  312,305
337,848;  304,560;  295,086;  301,025
337,930;  304,190;  303,165;  306,525
338,012;  300,690;  298,586;  299,555
338,093;  313,591;  312,396;  315,895
338,175;  321,280;  318,195;  321,575
338,257;  310,371;  306,945;  309,225
338,339;  296,280;  294,086;  300,165
338,420;  313,201;  310,986;  310,895
338,502;  299,600;  298,836;  304,265
338,584;  287,970;  286,736;  289,235
338,666;  304,880;  303,426;  302,365
338,747;  332,871;  330,806;  334,875
338,829;  311,940;  309,176;  309,265
338,911;  297,410;  296,236;  298,915
338,992;  294,160;  295,746;  294,435
339,074;  308,211;  306,155;  307,855
339,156;  297,820;  298,176;  303,395
339,237;  329,591;  325,035;  327,765
339,319;  300,961;  294,935;  300,045
339,400;  311,320;  309,065;  311,225
339,482;  279,591;  278,165;  280,605
339,564;  319,690;  317,026;  316,575
339,645;  306,901;  304,595;  308,105
339,727;  295,780;  290,216;  294,375
339,808;  322,641;  317,685;  322,555
339,890;  303,271;  299,956;  302,415
339,971;  314,510;  307,016;  315,055
340,053;  336,600;  336,746;  335,255
340,134;  295,991;  296,535;  298,415
340,216;  318,820;  315,556;  319,645
340,297;  299,931;  298,396;  301,525
340,379;  316,310;  314,736;  316,975
340,460;  306,260;  306,685;  306,615
340,542;  299,831;  294,535;  297,775
340,623;  310,711;  307,926;  312,435
340,705;  297,091;  297,516;  295,795
340,786;  291,331;  289,685;  291,925
340,868;  307,070;  308,826;  304,055
340,949;  286,331;  285,605;  286,145
341,030;  324,431;  321,435;  328,715
341,112;  284,190;  280,565;  284,075
341,193;  270,521;  270,135;  273,595
341,274;  321,841;  322,176;  320,965
341,356;  325,030;  320,716;  321,795
341,437;  301,260;  301,635;  300,825
341,518;  311,651;  307,176;  314,795
341,600;  324,510;  320,866;  322,465
341,681;  328,671;  328,866;  332,375
341,762;  325,871;  325,206;  323,705
341,844;  289,660;  287,146;  292,185
341,925;  309,901;  308,225;  311,205
342,006;  321,951;  320,426;  323,055
342,087;  291,790;  288,095;  292,095
342,169;  307,621;  307,026;  309,845
342,250;  287,160;  286,935;  285,935
342,331;  298,760;  298,706;  299,075
342,412;  310,220;  307,655;  310,045
342,493;  293,510;  289,415;  293,325
342,575;  326,641;  327,095;  327,355
342,656;  314,660;  318,466;  318,265
342,737;  331,480;  329,836;  330,295
342,818;  308,801;  307,996;  309,015
342,899;  317,280;  314,505;  317,165
342,980;  308,750;  306,695;  310,155
343,061;  304,190;  303,065;  304,715
343,143;  321,201;  319,535;  319,565
343,224;  312,341;  306,706;  305,915
343,305;  304,730;  299,625;  303,115
343,386;  301,940;  297,996;  300,475
343,467;  305,070;  303,155;  305,535
343,548;  307,741;  304,176;  305,935
343,629;  319,010;  316,405;  317,625
343,710;  325,671;  322,766;  321,015
343,791;  324,660;  325,065;  327,935
343,872;  297,991;  298,975;  297,795
343,953;  318,861;  314,826;  316,625
344,034;  320,491;  319,475;  324,485
344,115;  309,810;  304,255;  303,425
344,196;  300,841;  298,935;  302,165
344,277;  294,010;  293,306;  294,615
344,358;  306,000;  304,755;  307,345
344,439;  297,780;  293,975;  294,205
344,520;  297,371;  298,546;  300,975
344,601;  316,621;  314,646;  315,525
344,681;  306,621;  302,426;  303,825
344,762;  287,671;  283,466;  287,625
344,843;  279,111;  275,996;  281,125
344,924;  306,780;  303,635;  306,085
345,005;  292,551;  287,176;  288,725
345,086;  311,060;  307,665;  309,725
345,167;  296,260;  293,986;  295,575
345,247;  327,891;  323,896;  328,905
345,328;  321,010;  315,315;  317,705
345,409;  309,250;  307,056;  309,355
345,490;  315,500;  308,415;  314,245
345,571;  309,121;  304,875;  312,045
345,651;  284,480;  279,456;  279,055
345,732;  309,891;  307,285;  312,275
345,813;  313,810;  311,836;  317,355
345,894;  288,980;  285,785;  287,595
345,974;  314,421;  309,556;  311,845
346,055;  297,901;  296,435;  295,735
346,136;  304,350;  304,405;  306,245
346,216;  328,901;  324,945;  328,565
346,297;  308,841;  306,565;  304,225
346,378;  293,440;  291,996;  294,005
346,458;  309,901;  307,375;  313,405
346,539;  307,681;  302,306;  305,975
346,620;  306,790;  305,815;  306,685
346,700;  286,141;  288,755;  289,765
346,781;  287,021;  284,556;  286,765
346,861;  305,391;  304,336;  307,325
346,942;  302,280;  304,336;  302,715
347,023;  317,121;  317,885;  316,005
347,103;  303,790;  297,396;  302,825
347,184;  299,790;  294,475;  296,785
347,264;  296,750;  294,565;  296,805
347,345;  290,591;  290,526;  295,525
347,425;  285,410;  285,125;  290,565
347,506;  284,771;  283,595;  283,195
347,586;  293,151;  289,725;  292,435
347,667;  307,681;  307,616;  304,445
347,747;  311,271;  311,116;  310,775
347,828;  299,810;  296,486;  296,465
347,908;  309,530;  303,306;  307,175
347,988;  301,341;  298,655;  306,125
348,069;  311,461;  311,056;  311,395
348,149;  309,030;  303,956;  309,065
348,230;  312,780;  309,956;  310,945
348,310;  282,401;  284,185;  285,715
348,390;  289,551;  288,526;  288,625
348,471;  305,401;  303,665;  305,125
348,551;  292,160;  290,695;  293,935
348,632;  293,000;  289,505;  294,065
348,712;  288,861;  292,706;  295,115
348,792;  327,961;  329,836;  329,985
348,873;  284,861;  281,905;  283,045
348,953;  292,671;  289,845;  290,395
349,033;  299,970;  297,466;  299,465
349,113;  286,901;  286,076;  286,905
349,194;  304,861;  301,595;  304,825
349,274;  306,660;  304,796;  307,395
349,354;  306,241;  303,046;  308,435
349,434;  301,771;  300,116;  301,925
349,515;  319,820;  316,486;  322,185
349,595;  304,560;  302,206;  302,035
349,675;  308,970;  305,635;  308,015
349,755;  300,630;  296,746;  297,615
349,835;  304,810;  301,195;  307,695
349,916;  301,980;  298,435;  303,915
349,996;  293,980;  291,105;  291,745
350,076;  316,500;  312,375;  317,645
350,156;  283,081;  284,836;  287,665
350,236;  313,380;  314,116;  311,925
350,316;  292,660;  292,975;  295,765
350,396;  307,891;  305,646;  310,065
350,476;  301,341;  301,826;  304,275
350,556;  299,880;  293,966;  299,935
350,637;  322,220;  321,005;  321,825
350,717;  291,850;  288,445;  291,825
350,797;  307,991;  302,616;  305,905
350,877;  293,940;  289,875;  294,705
350,957;  297,151;  297,635;  300,095
351,037;  301,410;  298,556;  303,455
351,117;  298,921;  296,276;  296,555
351,197;  308,250;  303,366;  306,305
351,277;  301,641;  300,556;  301,575
351,357;  315,060;  308,806;  314,445
351,437;  309,060;  306,105;  307,755
351,516;  320,931;  317,986;  318,355
351,596;  296,690;  292,896;  296,025
351,676;  292,091;  290,405;  294,265
351,756;  327,551;  323,426;  326,135
351,836;  316,850;  313,866;  317,935
351,916;  298,380;  297,905;  298,975
351,996;  303,880;  303,996;  305,265
352,076;  305,100;  303,486;  303,085
352,156;  320,350;  319,556;  320,405
352,235;  301,581;  301,255;  300,955
352,315;  312,841;  312,456;  314,415
352,395;  310,410;  308,206;  309,425
352,475;  316,030;  315,405;  320,955
352,555;  333,451;  330,236;  330,635
352,634;  327,980;  321,956;  326,705
352,714;  306,480;  302,595;  304,055
352,794;  357,621;  354,466;  358,075
352,874;  315,780;  314,685;  317,555
352,953;  338,760;  337,676;  339,095
353,033;  323,671;  319,306;  320,925
353,113;  338,121;  332,135;  336,575
353,193;  328,730;  328,046;  329,935
353,272;  333,310;  333,135;  334,365
353,352;  310,991;  307,035;  311,285
353,432;  348,591;  343,005;  347,495
353,511;  330,701;  326,185;  330,665
353,591;  362,000;  361,616;  362,555
353,671;  332,570;  331,926;  333,015
353,750;  330,690;  332,296;  331,275
353,830;  315,991;  313,646;  317,015
353,909;  341,431;  339,836;  343,655
353,989;  319,100;  317,385;  320,255
354,069;  320,280;  319,456;  319,155
354,148;  339,461;  335,035;  339,585
354,228;  316,810;  315,695;  316,905
354,307;  329,771;  329,405;  332,345
354,387;  322,551;  322,095;  322,965
354,466;  315,951;  311,635;  316,045
354,546;  339,070;  335,135;  337,645
354,625;  318,660;  319,815;  320,355
354,705;  326,181;  324,246;  326,865
354,784;  316,690;  316,445;  318,195
354,864;  318,921;  316,635;  317,385
354,943;  336,331;  333,695;  339,105
355,023;  308,081;  310,996;  312,285
355,102;  365,711;  362,866;  363,435
355,181;  317,181;  315,966;  318,045
355,261;  343,030;  338,056;  342,165
355,340;  307,350;  303,845;  307,115
355,420;  343,040;  340,105;  342,305
355,499;  322,850;  322,975;  325,635
355,578;  318,951;  315,276;  316,885
355,658;  333,741;  332,875;  333,745
355,737;  321,910;  317,576;  319,005
355,816;  328,371;  323,276;  324,605
355,896;  319,350;  316,026;  321,355
355,975;  311,371;  307,355;  310,055
356,054;  309,630;  311,935;  312,455
356,133;  290,130;  290,565;  293,305
356,213;  329,081;  324,845;  324,825
356,292;  309,361;  304,016;  309,325
356,371;  314,790;  314,146;  314,035
356,451;  326,271;  324,755;  327,685
356,530;  352,301;  349,496;  350,795
356,609;  316,000;  311,146;  315,535
356,688;  316,910;  316,475;  316,165
356,767;  309,591;  304,695;  309,855
356,846;  325,431;  327,035;  327,235
356,926;  342,010;  340,016;  343,965
357,005;  317,130;  318,345;  318,565
357,084;  307,480;  304,466;  308,385
357,163;  316,660;  317,706;  317,185
357,242;  319,461;  320,146;  319,515
357,321;  317,060;  314,496;  316,575
357,400;  319,660;  321,236;  318,865
357,479;  318,801;  317,725;  320,795
357,559;  325,260;  321,405;  325,705
357,638;  300,970;  300,616;  298,815
357,717;  314,380;  313,746;  311,555
357,796;  330,980;  329,266;  330,875
357,875;  313,421;  314,466;  313,455
357,954;  309,510;  310,155;  313,855
358,033;  320,891;  323,405;  320,935
358,112;  331,701;  329,966;  328,315
358,191;  319,211;  315,276;  318,965
358,270;  296,720;  295,505;  297,695
358,349;  319,570;  321,625;  323,725
358,428;  322,521;  322,445;  326,125
358,507;  324,331;  321,366;  325,105
358,585;  321,991;  320,355;  325,525
358,664;  337,241;  332,266;  334,505
358,743;  321,720;  323,776;  326,515
358,822;  337,730;  334,475;  338,195
358,901;  310,931;  309,176;  309,505
358,980;  312,831;  310,885;  313,735
359,059;  330,660;  328,616;  332,255
359,138;  329,141;  329,415;  328,565
359,216;  325,040;  322,225;  327,485
359,295;  311,961;  309,475;  309,515
359,374;  333,591;  330,026;  333,455
359,453;  320,861;  316,345;  320,885
359,532;  309,260;  304,526;  308,455
359,610;  323,470;  319,556;  323,285
359,689;  333,451;  331,116;  333,025
359,768;  316,750;  313,706;  315,305
359,847;  305,461;  302,065;  305,385
359,925;  305,641;  304,105;  307,215
360,004;  307,651;  299,565;  302,585
360,083;  319,111;  320,165;  321,795
360,161;  308,290;  305,676;  309,885
360,240;  290,910;  288,725;  291,455
360,319;  318,760;  318,276;  317,225
360,397;  329,100;  324,986;  331,265
360,476;  320,271;  318,296;  324,355
360,555;  347,701;  345,565;  346,835
360,633;  307,091;  304,456;  304,945
360,712;  309,831;  309,056;  311,825
360,790;  333,810;  330,065;  331,185
360,869;  312,510;  310,266;  313,085
360,948;  323,551;  322,466;  322,235
361,026;  300,880;  300,065;  301,245
361,105;  313,470;  306,116;  309,875
361,183;  326,961;  324,725;  326,345
361,262;  304,701;  302,375;  307,465
361,340;  308,121;  305,815;  306,875
361,419;  292,271;  289,896;  290,845
361,497;  344,790;  340,926;  346,955
361,576;  320,611;  317,736;  323,245
361,654;  346,970;  342,736;  343,615
361,733;  299,780;  297,366;  297,305
361,811;  330,431;  329,065;  331,875
361,890;  293,451;  292,595;  293,595
361,968;  317,861;  313,706;  316,715
362,046;  337,371;  335,296;  335,795
362,125;  341,510;  337,435;  340,865
362,203;  315,440;  314,635;  316,745
362,282;  331,641;  328,676;  334,675
362,360;  322,230;  318,315;  323,125
362,438;  319,600;  313,565;  317,495
362,517;  359,451;  357,725;  357,035
362,595;  342,081;  340,956;  345,025
362,673;  338,760;  334,576;  338,035
362,752;  327,970;  326,366;  329,445
362,830;  342,060;  343,155;  338,795
362,908;  323,331;  322,885;  326,315
362,986;  336,060;  333,595;  334,645
363,065;  328,951;  326,405;  330,985
363,143;  363,310;  359,875;  363,525
363,221;  323,051;  313,755;  319,675
363,299;  317,711;  315,845;  315,595
363,378;  333,480;  327,546;  328,495
363,456;  308,510;  304,326;  305,295
363,534;  331,720;  323,996;  327,895
363,612;  330,380;  327,546;  330,285
363,690;  339,760;  337,885;  341,915
363,769;  357,861;  349,336;  354,965
363,847;  332,480;  332,326;  333,935
363,925;  307,081;  303,095;  306,775
364,003;  355,630;  350,866;  351,845
364,081;  344,160;  336,345;  339,765
364,159;  339,421;  331,836;  334,695
364,237;  351,810;  341,276;  343,025
364,315;  330,190;  318,866;  320,765
364,393;  366,000;  350,935;  355,465
364,471;  344,681;  328,185;  329,975
364,549;  352,440;  333,026;  334,495
364,627;  360,030;  323,095;  327,065
364,705;  365,211;  311,135;  310,945
364,783;  440,310;  323,496;  332,235
364,861; 1009,021;  331,396;  334,915
364,939; 3535,210;  314,086;  319,855
365,017;  802,240;  306,046;  310,735
365,095;  373,810;  322,116;  324,495
365,173;  376,380;  345,556;  349,605
365,251;  387,130;  341,535;  344,665
365,329;  536,581;  346,466;  345,195
365,407; 1145,130;  318,345;  321,385
365,485;  469,820;  344,826;  348,395
365,563;  360,701;  344,306;  346,815
365,641;  340,160;  331,896;  331,005
365,719;  347,831;  337,095;  336,965
365,796;  343,241;  334,926;  336,075
365,874;  359,280;  347,426;  349,165
365,952;  323,421;  309,516;  312,925
366,030;  352,491;  334,866;  333,525
366,108;  362,660;  326,345;  328,575
366,185;  622,690;  338,396;  343,695
366,263;  871,331;  334,646;  340,035
366,341;  381,570;  334,125;  339,925
366,419;  344,130;  331,535;  331,355
366,496;  349,810;  342,655;  345,225
366,574;  333,190;  325,826;  329,315
366,652;  353,440;  345,296;  349,635
366,730;  370,510;  365,475;  368,065
366,807;  338,510;  330,845;  334,945
366,885;  330,211;  321,135;  327,175
366,963;  334,431;  329,016;  331,635
367,040;  352,850;  345,815;  352,465
367,118;  331,051;  321,875;  325,205
367,196;  350,771;  341,896;  344,715
367,273;  338,401;  335,845;  338,245
367,351;  332,350;  328,155;  331,125
367,428;  362,271;  355,016;  356,915
367,506;  335,581;  329,225;  333,905
367,584;  363,060;  360,216;  363,085
367,661;  347,010;  341,785;  346,585
367,739;  335,671;  328,466;  334,835
367,816;  328,801;  320,345;  324,175
367,894;  344,111;  339,146;  345,755
367,971;  339,100;  329,885;  333,335
368,049;  356,451;  349,586;  353,435
368,126;  319,880;  314,625;  317,265
368,204;  354,780;  351,836;  352,775
368,281;  356,181;  353,225;  355,775
368,359;  351,810;  348,806;  354,965
368,436;  353,220;  342,385;  348,785
368,514;  352,500;  349,646;  351,035
368,591;  348,711;  343,486;  348,405
368,668;  352,000;  347,486;  351,455
368,746;  363,141;  358,556;  362,125
368,823;  344,720;  342,405;  345,515
368,901;  342,980;  339,046;  341,025
368,978;  361,551;  354,975;  361,925
369,055;  345,641;  343,826;  347,145
369,133;  370,901;  367,046;  368,725
369,210;  340,280;  339,206;  342,185
369,287;  369,250;  367,986;  371,205
369,365;  371,660;  368,896;  369,715
369,442;  350,171;  346,826;  351,135
369,519;  309,280;  306,396;  310,475
369,596;  370,500;  369,005;  372,695
369,674;  337,030;  336,526;  336,705
369,751;  367,871;  368,005;  369,405
369,828;  353,651;  350,366;  351,255
369,905;  356,521;  354,796;  358,705
369,983;  334,570;  329,826;  336,485
370,060;  338,970;  335,185;  336,165
370,137;  372,780;  371,595;  373,975
370,214;  342,021;  340,246;  340,845
370,291;  352,220;  347,845;  351,965
370,368;  348,181;  345,426;  349,675
370,446;  338,241;  335,716;  337,375
370,523;  337,010;  331,586;  338,615
370,600;  357,201;  350,706;  356,355
370,677;  351,730;  345,826;  349,525
370,754;  345,621;  341,706;  344,655
370,831;  348,060;  344,885;  347,665
370,908;  369,730;  368,556;  369,945
370,985;  328,491;  326,206;  327,885
371,062;  349,440;  346,635;  347,955
371,139;  361,831;  362,125;  364,815
371,216;  358,810;  357,496;  359,475
371,293;  351,820;  350,576;  350,305
371,370;  331,681;  328,806;  332,395
371,447;  359,510;  354,736;  355,835
371,524;  377,331;  374,685;  378,505
371,601;  373,350;  371,556;  374,285
371,678;  375,201;  374,306;  375,345
371,755;  351,961;  348,526;  348,275
371,832;  374,641;  374,526;  377,175
371,909;  342,250;  342,065;  344,605
371,986;  378,711;  376,505;  379,065
372,063;  347,880;  346,195;  348,745
372,140;  355,401;  354,056;  357,495
372,216;  362,651;  360,225;  360,935
372,293;  346,000;  341,945;  344,805
372,370;  371,991;  370,236;  372,635
372,447;  356,951;  361,646;  361,385
372,524;  350,220;  349,725;  352,115
372,601;  356,600;  353,236;  356,005
372,677;  339,750;  339,586;  339,035
372,754;  349,141;  347,516;  350,955
372,831;  359,121;  354,716;  356,955
372,908;  369,121;  368,496;  364,795
372,984;  358,421;  349,246;  356,035
373,061;  338,510;  342,046;  342,845
373,138;  353,060;  349,986;  354,465
373,215;  347,151;  345,155;  346,585
373,291;  351,510;  347,556;  353,415
373,368;  354,690;  353,516;  357,375
373,445;  350,690;  348,285;  348,395
373,521;  352,250;  349,216;  353,935
373,598;  343,030;  341,766;  343,845
373,675;  336,910;  332,646;  334,115
373,751;  349,480;  345,375;  354,195
373,828;  346,130;  341,076;  346,375
373,904;  391,141;  387,225;  391,935
373,981;  333,521;  332,516;  333,585
374,057;  356,290;  353,306;  355,945
374,134;  333,220;  331,706;  334,435
374,211;  351,841;  348,826;  351,835
374,287;  337,310;  338,565;  339,035
374,364;  363,600;  362,426;  365,335
374,440;  321,521;  319,035;  321,205
374,517;  367,121;  361,625;  366,995
374,593;  327,070;  326,896;  326,865
374,670;  341,820;  340,095;  342,905
374,746;  346,730;  346,915;  349,135
374,823;  371,801;  369,255;  368,775
374,899;  366,931;  366,836;  366,475
374,975;  340,280;  336,035;  341,495
375,052;  324,290;  319,776;  326,175
375,128;  330,361;  325,956;  331,675
375,205;  356,021;  353,665;  355,605
375,281;  333,841;  337,296;  336,395
375,357;  364,401;  361,026;  364,245
375,434;  337,891;  331,986;  338,045
375,510;  353,901;  347,755;  353,175
375,586;  351,030;  347,486;  349,845
375,663;  327,100;  321,926;  323,515
375,739;  356,701;  355,716;  358,675
375,815;  346,741;  346,366;  346,765
375,892;  348,621;  344,516;  348,555
375,968;  340,201;  331,605;  336,855
376,044;  340,380;  335,866;  339,405
376,120;  339,980;  332,535;  339,615
376,197;  354,891;  348,466;  352,185
376,273;  341,530;  340,516;  341,095
376,349;  384,301;  378,366;  379,125
376,425;  365,931;  362,935;  364,425
376,501;  350,091;  344,225;  347,555
376,578;  363,410;  362,885;  363,255
376,654;  381,051;  383,866;  382,945
376,730;  363,470;  360,266;  364,005
376,806;  373,671;  375,185;  376,845
376,882;  376,681;  377,176;  378,355
376,958;  377,711;  376,706;  373,325
377,034;  318,320;  319,695;  317,895
377,111;  371,250;  368,826;  369,285
377,187;  392,421;  390,845;  391,825
377,263;  386,551;  383,885;  384,725
377,339;  348,630;  341,445;  346,375
377,415;  364,260;  366,366;  365,685
377,491;  347,790;  342,885;  347,505
377,567;  360,720;  359,755;  360,685
377,643;  383,141;  380,076;  378,785
377,719;  367,741;  363,706;  367,845
377,795;  347,220;  345,725;  349,165
377,871;  374,651;  367,866;  370,355
377,947;  355,290;  348,236;  351,215
378,023;  351,540;  345,855;  349,075
378,099;  352,121;  349,035;  350,465
378,174;  373,841;  374,176;  374,825
378,250;  365,970;  363,105;  366,955
378,326;  372,201;  366,255;  370,045
378,402;  362,701;  357,685;  360,315
378,478;  363,241;  361,605;  365,295
378,554;  372,810;  370,396;  375,075
378,630;  362,040;  365,225;  365,285
378,706;  362,250;  358,076;  357,335
378,781;  394,591;  390,875;  394,875
378,857;  364,711;  363,185;  366,505
378,933;  365,130;  360,315;  365,855
379,009;  354,181;  351,426;  351,035
379,085;  395,241;  393,826;  391,725
379,160;  377,600;  377,246;  378,485
379,236;  375,410;  374,195;  376,655
379,312;  362,401;  359,915;  361,725
379,387;  353,730;  354,486;  355,105
379,463;  365,361;  359,836;  363,685
379,539;  376,730;  370,475;  373,395
379,615;  360,730;  359,056;  358,495
379,690;  400,720;  395,035;  398,755
379,766;  380,171;  373,276;  379,335
379,842;  393,551;  391,105;  391,375
379,917;  387,750;  380,935;  388,225
379,993;  371,560;  368,366;  373,385
380,068;  361,121;  359,236;  361,755
380,144;  385,310;  381,086;  383,405
380,220;  384,931;  382,086;  386,535
380,295;  353,760;  353,005;  355,035
380,371;  359,250;  359,935;  361,545
380,446;  380,901;  377,165;  381,125
380,522;  350,491;  348,766;  349,425
380,597;  361,780;  360,486;  359,965
380,673;  396,171;  390,456;  394,425
380,748;  360,130;  358,046;  358,445
380,824;  370,991;  367,676;  369,935
380,899;  388,271;  386,216;  388,425
380,975;  366,880;  365,475;  366,905
381,050;  354,771;  352,806;  352,825
381,126;  370,331;  370,526;  373,695
381,201;  405,570;  398,806;  402,495
381,277;  373,141;  373,435;  374,795
381,352;  388,961;  388,105;  390,855
381,427;  378,600;  372,586;  376,025
381,503;  379,581;  378,896;  379,385
381,578;  366,290;  360,605;  365,515
381,653;  374,491;  368,776;  372,375
381,729;  364,470;  361,535;  360,945
381,804;  370,660;  367,475;  368,805
381,879;  385,010;  383,306;  386,055
381,955;  356,961;  354,396;  356,545
382,030;  355,980;  356,556;  357,225
382,105;  378,130;  375,586;  372,555
382,181;  374,271;  367,466;  371,255
382,256;  377,010;  378,116;  374,765
382,331;  374,530;  367,216;  371,745
382,406;  353,260;  353,266;  357,745
382,482;  363,431;  361,315;  357,655
382,557;  364,060;  363,526;  366,745
382,632;  372,910;  370,595;  371,585
382,707;  363,320;  361,135;  365,615
382,782;  366,801;  361,516;  366,275
382,857;  357,290;  358,996;  361,035
382,933;  357,051;  351,776;  352,995
383,008;  345,510;  344,065;  345,165
383,083;  378,211;  376,866;  379,215
383,158;  382,841;  378,866;  381,615
383,233;  364,810;  362,385;  363,105
383,308;  363,831;  359,875;  362,675
383,383;  393,551;  389,445;  391,785
383,458;  362,831;  361,135;  360,475
383,533;  344,000;  342,456;  344,625
383,608;  390,611;  387,885;  390,385
383,683;  388,220;  385,046;  389,585
383,758;  382,021;  380,285;  380,925
383,833;  370,211;  370,296;  371,015
383,908;  346,371;  343,206;  342,165
383,983;  352,000;  346,296;  350,755
384,058;  356,730;  355,246;  357,655
384,133;  370,160;  368,185;  368,575
384,208;  380,070;  376,796;  379,565
384,283;  349,671;  348,736;  351,825
384,358;  383,771;  381,845;  387,485
384,433;  359,260;  357,496;  357,355
384,508;  374,000;  368,966;  373,895
384,583;  374,891;  373,725;  375,265
384,658;  373,171;  367,915;  371,275
384,732;  338,301;  339,456;  339,705
384,807;  366,970;  366,935;  369,005
384,882;  374,401;  371,246;  373,145
384,957;  375,461;  368,095;  371,985
385,032;  378,271;  375,426;  376,555
385,106;  372,521;  370,216;  371,515
385,181;  357,290;  351,385;  357,155
385,256;  365,440;  363,565;  366,745
385,331;  373,190;  371,935;  373,255
385,405;  382,000;  380,975;  381,445
385,480;  367,341;  365,695;  366,715
385,555;  404,030;  399,306;  400,405
385,630;  392,401;  390,956;  395,935
385,704;  377,980;  374,056;  377,105
385,779;  367,070;  364,405;  364,855
385,854;  370,651;  368,746;  369,975
385,928;  364,160;  363,016;  365,315
386,003;  405,051;  402,586;  405,115
386,078;  373,230;  372,466;  374,995
386,152;  403,271;  401,456;  401,815
386,227;  361,341;  357,646;  361,225
386,301;  380,371;  378,725;  380,385
386,376;  357,341;  348,695;  355,015
386,450;  378,741;  378,616;  381,145
386,525;  376,230;  373,556;  377,655
386,600;  387,260;  385,746;  385,925
386,674;  367,901;  364,076;  367,315
386,749;  379,581;  375,095;  381,315
386,823;  379,651;  377,435;  382,095
386,898;  382,230;  379,766;  380,535
386,972;  387,290;  380,966;  385,985
387,047;  375,070;  369,776;  374,355
387,121;  381,901;  379,695;  380,335
387,195;  359,841;  357,875;  359,895
387,270;  388,741;  385,625;  385,415
387,344;  404,980;  404,405;  407,055
387,419;  392,260;  385,665;  393,195
387,493;  382,290;  377,776;  379,825
387,567;  358,540;  355,005;  358,475
387,642;  406,720;  403,586;  405,945
387,716;  372,040;  369,565;  372,245
387,790;  374,410;  367,706;  371,225
387,865;  372,470;  372,806;  373,715
387,939;  405,940;  403,005;  404,415
388,013;  387,010;  384,806;  386,145
388,088;  373,380;  368,655;  370,085
388,162;  373,820;  370,135;  371,835
388,236;  379,540;  372,456;  375,275
388,310;  364,901;  361,966;  364,475
388,385;  396,630;  397,185;  400,845
388,459;  379,091;  379,996;  380,235
388,533;  364,250;  363,676;  362,565
388,607;  367,371;  366,776;  365,955
388,682;  378,401;  374,806;  375,745
388,756;  359,290;  355,035;  360,825
388,830;  389,951;  390,255;  394,075
388,904;  385,611;  378,276;  385,365
388,978;  371,760;  369,535;  370,165
389,052;  377,241;  375,396;  377,225
389,126;  374,871;  370,435;  376,195
389,200;  377,241;  372,665;  377,205
389,275;  369,641;  369,266;  367,695
389,349;  372,991;  374,695;  373,065
389,423;  369,230;  369,565;  369,375
389,497;  381,111;  380,966;  383,775
389,571;  368,861;  368,665;  370,175
389,645;  380,421;  376,806;  379,805
389,719;  373,910;  369,396;  372,955
389,793;  347,980;  346,576;  348,725
389,867;  404,551;  398,035;  402,955
389,941;  379,741;  375,375;  377,215
390,015;  366,510;  361,135;  364,515
390,089;  362,790;  360,426;  362,085
390,163;  374,230;  372,456;  375,935
390,237;  380,021;  375,435;  379,295
390,310;  380,290;  379,276;  382,155
390,384;  382,380;  376,546;  383,625
390,458;  405,100;  400,826;  403,825
390,532;  387,491;  383,496;  386,725
390,606;  367,690;  365,945;  369,265
390,680;  366,951;  366,466;  368,115
390,754;  370,461;  366,385;  368,915
390,827;  393,081;  388,276;  392,645
390,901;  395,301;  391,855;  396,215
390,975;  371,801;  368,905;  370,295
391,049;  367,491;  366,366;  364,315
391,123;  362,410;  362,685;  363,545
391,196;  365,891;  367,635;  367,855
391,270;  376,010;  378,426;  377,835
391,344;  361,500;  360,056;  359,585
391,418;  375,361;  372,975;  372,155
391,491;  361,491;  362,655;  363,995
391,565;  365,690;  362,065;  366,105
391,639;  398,070;  394,345;  397,875
391,712;  385,040;  385,815;  384,375
391,786;  382,810;  382,646;  386,785
391,860;  371,891;  369,385;  370,925
391,933;  371,980;  369,935;  371,115
392,007;  377,810;  371,355;  380,875
392,081;  399,660;  396,456;  399,955
392,154;  381,341;  377,845;  383,895
392,228;  393,991;  391,366;  394,685
392,301;  379,371;  376,266;  381,275
392,375;  391,030;  386,076;  389,995
392,448;  383,871;  379,516;  384,445
392,522;  376,970;  376,236;  379,965
392,595;  374,581;  370,105;  374,245
392,669;  376,410;  376,116;  379,675
392,742;  395,491;  390,975;  396,915
392,816;  395,611;  397,296;  400,205
392,889;  395,480;  392,746;  396,605
392,963;  410,211;  409,095;  409,745
393,036;  388,671;  385,345;  386,785
393,110;  395,100;  391,155;  393,885
393,183;  405,310;  400,836;  405,685
393,257;  420,230;  415,456;  417,745
393,330;  371,130;  365,845;  369,745
393,403;  392,201;  390,486;  395,585
393,477;  359,880;  355,845;  358,875
393,550;  391,160;  390,306;  395,545
393,623;  388,500;  388,396;  388,295
393,697;  406,850;  406,056;  406,835
393,770;  379,480;  376,556;  379,065
393,843;  408,040;  402,996;  406,915
393,917;  397,111;  394,216;  398,485
393,990;  412,431;  409,996;  410,125
394,063;  392,401;  386,855;  392,225
394,136;  393,000;  388,635;  391,675
394,210;  395,271;  393,336;  395,655
394,283;  407,121;  402,785;  407,175
394,356;  401,760;  399,165;  399,175
394,429;  399,151;  396,935;  398,825
394,502;  382,431;  382,016;  383,895
394,576;  415,880;  414,125;  414,715
394,649;  380,701;  378,776;  377,865
394,722;  406,521;  400,896;  403,785
394,795;  410,701;  408,306;  413,185
394,868;  383,121;  384,135;  385,985
394,941;  376,910;  376,435;  375,265
395,014;  419,111;  417,056;  420,205
395,088;  403,410;  398,956;  399,175
395,161;  396,271;  395,466;  398,685
395,234;  408,480;  409,236;  410,735
395,307;  405,510;  402,236;  405,525
395,380;  388,560;  384,736;  385,325
395,453;  437,801;  436,845;  437,285
395,526;  412,500;  408,385;  412,495
395,599;  431,711;  426,926;  430,645
395,672;  395,921;  394,586;  394,895
395,745;  419,951;  417,125;  421,075
395,818;  377,320;  376,306;  378,615
395,891;  389,181;  385,635;  387,695
395,964;  415,560;  415,896;  414,885
396,036;  388,100;  387,486;  384,175
396,109;  397,991;  392,076;  395,785
396,182;  399,660;  396,766;  399,545
396,255;  402,010;  399,225;  398,845
396,328;  411,530;  410,065;  411,075
396,401;  370,841;  370,746;  371,295
396,474;  382,260;  381,086;  381,505
396,547;  402,230;  397,046;  400,645
396,619;  394,591;  390,755;  390,525
396,692;  409,530;  404,866;  411,355
396,765;  373,861;  370,616;  372,985
396,838;  388,831;  388,225;  388,295
396,911;  375,100;  371,266;  373,155
396,983;  392,310;  392,496;  392,385
397,056;  375,480;  372,355;  374,095
397,129;  393,250;  387,796;  389,615
397,201;  392,171;  391,556;  389,605
397,274;  391,621;  385,366;  389,335
397,347;  365,611;  363,345;  363,665
397,420;  385,530;  384,605;  387,195
397,492;  389,681;  388,296;  388,685
397,565;  377,991;  375,915;  379,595
397,637;  373,540;  369,366;  372,085
397,710;  353,891;  351,586;  350,295
397,783;  415,260;  412,855;  414,805
397,855;  346,171;  345,345;  347,055
397,928;  371,220;  368,336;  371,095
398,000;  396,660;  395,866;  396,635
398,073;  389,190;  386,546;  384,745
398,146;  380,241;  376,706;  377,295
398,218;  392,431;  390,255;  393,135
398,291;  391,651;  385,806;  387,915
398,363;  383,051;  381,755;  384,505
398,436;  373,600;  369,855;  374,675
398,508;  380,891;  383,266;  385,345
398,581;  381,051;  378,206;  380,565
398,653;  375,130;  374,255;  373,825
398,726;  378,570;  378,535;  383,385
398,798;  387,160;  383,306;  387,885
398,870;  393,980;  391,116;  396,905
398,943;  371,701;  366,236;  369,775
399,015;  365,480;  365,676;  368,815
399,088;  388,760;  389,655;  388,435
399,160;  369,701;  368,076;  368,815
399,232;  355,391;  350,405;  352,095
399,305;  369,891;  368,435;  372,935
399,377;  382,651;  377,905;  377,535
399,449;  388,130;  386,246;  388,735
399,522;  425,451;  421,875;  424,965
399,594;  368,621;  364,576;  365,315
399,666;  387,081;  382,625;  385,235
399,738;  374,940;  373,336;  375,225
399,811;  377,951;  376,736;  377,025
399,883;  388,461;  386,105;  388,295
399,955;  395,711;  389,855;  389,195
400,027;  351,850;  345,945;  349,545
400,100;  407,280;  407,366;  409,275
400,172;  351,581;  348,296;  349,645
400,244;  376,130;  378,225;  381,195
400,316;  393,540;  393,016;  393,505
400,388;  390,111;  389,385;  393,005
400,460;  365,310;  359,306;  364,605
400,532;  351,470;  350,826;  351,835
400,605;  380,741;  377,736;  384,975
400,677;  404,681;  402,285;  404,675
400,749;  396,021;  395,685;  398,125
400,821;  387,171;  385,956;  388,105
400,893;  378,091;  379,445;  382,305
400,965;  388,871;  386,755;  392,785
401,037;  388,780;  387,565;  392,525
401,109;  371,540;  370,725;  373,835
401,181;  380,790;  380,716;  385,485

