pru
Integration time [ms]:   0,150
Averaging Nr. [scans]: 10
Smoothing Nr. [pixels]: 0
Data measured with spectrometer [name]: 7416147SP
Wave   ;Sample   ;Dark     ;Reference
[nm]   ;[counts] ;[counts] ;[counts] 

230,218;  293,825;  290,315;  293,845
230,311;  319,825;  319,885;  318,565
230,404;  312,025;  309,855;  312,875
230,497;  322,325;  317,385;  315,715
230,591;  341,225;  333,426;  335,355
230,684;  335,625;  326,486;  329,355
230,777;  329,825;  311,736;  314,765
230,870;  320,325;  313,326;  316,955
230,964;  311,625;  310,885;  314,745
231,057;  344,125;  342,496;  343,475
231,150;  339,025;  331,695;  332,715
231,243;  326,825;  330,635;  332,775
231,336;  331,025;  331,375;  331,335
231,430;  324,825;  316,496;  317,715
231,523;  325,525;  324,516;  326,785
231,616;  309,125;  305,445;  309,685
231,709;  338,925;  328,065;  330,025
231,802;  311,325;  300,945;  301,885
231,895;  308,025;  299,836;  300,315
231,988;  323,225;  315,655;  318,535
232,082;  309,225;  298,155;  302,425
232,175;  312,825;  302,155;  306,175
232,268;  315,425;  301,266;  305,345
232,361;  312,825;  304,806;  307,515
232,454;  340,225;  322,396;  323,025
232,547;  328,225;  318,716;  322,655
232,640;  307,325;  296,766;  294,035
232,733;  329,325;  314,116;  323,045
232,826;  312,025;  288,915;  295,035
232,919;  321,025;  313,826;  312,665
233,012;  297,525;  293,646;  292,775
233,105;  315,225;  294,766;  298,815
233,199;  323,825;  299,875;  304,045
233,292;  313,525;  293,475;  296,235
233,385;  277,425;  263,426;  262,225
233,478;  311,325;  293,885;  295,685
233,571;  331,825;  324,586;  327,675
233,664;  317,425;  305,996;  308,435
233,757;  293,825;  280,796;  281,395
233,850;  295,725;  282,255;  285,825
233,943;  305,025;  290,896;  292,195
234,035;  321,025;  300,576;  302,355
234,128;  279,825;  281,836;  283,945
234,221;  311,325;  297,665;  298,245
234,314;  324,125;  304,915;  311,975
234,407;  324,925;  302,935;  309,075
234,500;  288,325;  277,625;  281,875
234,593;  303,325;  287,095;  285,735
234,686;  308,425;  293,746;  293,765
234,779;  298,625;  291,266;  293,165
234,872;  302,525;  281,806;  281,565
234,965;  305,225;  292,806;  290,795
235,058;  290,725;  274,155;  276,215
235,150;  302,525;  285,776;  290,805
235,243;  294,125;  282,736;  284,425
235,336;  322,125;  300,695;  304,545
235,429;  288,125;  273,646;  272,515
235,522;  336,625;  330,996;  335,445
235,615;  284,425;  262,276;  265,145
235,707;  294,325;  282,415;  282,335
235,800;  302,425;  289,815;  290,515
235,893;  309,625;  289,956;  292,955
235,986;  309,725;  298,266;  299,325
236,079;  294,725;  286,586;  291,125
236,171;  293,425;  270,725;  271,865
236,264;  324,825;  312,635;  313,275
236,357;  314,625;  290,986;  293,865
236,450;  319,225;  315,225;  317,215
236,542;  284,325;  267,065;  272,575
236,635;  318,725;  313,546;  316,385
236,728;  301,825;  285,516;  288,115
236,821;  283,025;  280,165;  283,715
236,913;  286,325;  277,896;  276,315
237,006;  281,325;  271,605;  275,435
237,099;  305,225;  283,896;  285,575
237,191;  316,925;  298,796;  300,225
237,284;  290,225;  267,896;  272,995
237,377;  314,325;  294,725;  297,495
237,470;  303,325;  285,415;  287,875
237,562;  298,625;  276,866;  275,785
237,655;  328,225;  320,945;  324,565
237,747;  308,125;  292,695;  295,845
237,840;  332,325;  313,086;  314,435
237,933;  326,125;  300,445;  301,555
238,025;  314,925;  301,415;  301,595
238,118;  303,025;  282,456;  287,755
238,211;  284,925;  268,155;  272,375
238,303;  286,425;  272,296;  273,415
238,396;  284,225;  268,065;  271,945
238,488;  303,125;  292,625;  291,075
238,581;  294,425;  287,855;  289,445
238,673;  302,025;  285,766;  286,865
238,766;  283,525;  282,635;  283,185
238,859;  287,425;  273,586;  276,105
238,951;  296,725;  281,095;  282,835
239,044;  289,025;  276,496;  279,525
239,136;  285,725;  269,035;  271,705
239,229;  298,725;  280,665;  283,435
239,321;  286,825;  271,255;  276,105
239,414;  309,025;  289,875;  292,345
239,506;  294,525;  284,625;  290,655
239,599;  331,925;  316,315;  315,935
239,691;  302,625;  287,945;  287,755
239,784;  318,925;  301,926;  304,175
239,876;  313,625;  295,005;  294,715
239,969;  296,825;  284,426;  288,635
240,061;  282,125;  269,505;  272,655
240,153;  290,625;  276,776;  278,405
240,246;  301,925;  287,635;  287,925
240,338;  331,025;  315,285;  314,405
240,431;  283,925;  268,896;  270,455
240,523;  277,125;  269,315;  270,665
240,615;  317,925;  299,086;  301,495
240,708;  324,925;  309,945;  312,145
240,800;  301,725;  286,956;  289,175
240,893;  290,725;  272,216;  274,965
240,985;  310,625;  286,116;  289,995
241,077;  284,625;  269,866;  271,905
241,170;  321,025;  300,355;  300,805
241,262;  291,725;  293,695;  290,825
241,354;  277,725;  252,305;  253,985
241,447;  294,425;  281,326;  283,905
241,539;  288,725;  266,746;  270,745
241,631;  342,225;  314,366;  317,275
241,724;  282,725;  259,135;  260,655
241,816;  294,125;  279,385;  281,545
241,908;  285,825;  275,056;  280,445
242,000;  298,125;  277,625;  279,505
242,093;  304,325;  277,725;  280,745
242,185;  299,525;  277,736;  277,535
242,277;  290,825;  274,695;  277,115
242,369;  296,625;  282,146;  286,335
242,462;  295,825;  274,405;  274,215
242,554;  298,725;  277,146;  281,105
242,646;  298,025;  283,146;  286,575
242,738;  315,725;  303,255;  307,195
242,830;  283,125;  259,026;  260,415
242,923;  316,325;  297,035;  299,015
243,015;  282,625;  268,655;  266,675
243,107;  288,625;  267,676;  271,255
243,199;  300,225;  276,345;  278,365
243,291;  288,425;  272,125;  276,215
243,383;  273,625;  254,826;  256,465
243,476;  285,725;  269,435;  268,005
243,568;  298,125;  280,915;  284,885
243,660;  298,025;  273,385;  279,575
243,752;  298,625;  279,796;  287,275
243,844;  310,125;  300,766;  302,705
243,936;  313,725;  291,956;  293,555
244,028;  309,525;  304,796;  307,475
244,120;  264,725;  254,346;  255,525
244,212;  301,625;  293,826;  293,755
244,305;  286,425;  268,496;  267,935
244,397;  306,625;  289,165;  291,675
244,489;  324,825;  304,276;  307,925
244,581;  316,225;  299,255;  300,795
244,673;  298,725;  281,806;  283,225
244,765;  309,425;  286,035;  290,565
244,857;  305,325;  284,986;  287,335
244,949;  304,425;  283,956;  284,945
245,041;  263,025;  250,865;  255,005
245,133;  321,025;  293,695;  296,625
245,225;  302,425;  277,915;  280,695
245,317;  306,125;  289,456;  289,025
245,409;  278,525;  263,755;  269,375
245,501;  304,225;  288,496;  293,045
245,593;  308,625;  286,255;  290,055
245,685;  296,925;  285,405;  288,735
245,776;  300,225;  285,945;  287,235
245,868;  288,525;  271,276;  272,565
245,960;  279,225;  265,875;  263,405
246,052;  320,625;  310,766;  310,445
246,144;  304,925;  294,165;  294,205
246,236;  299,425;  283,576;  283,565
246,328;  304,625;  291,345;  293,965
246,420;  302,225;  279,746;  280,855
246,512;  335,725;  308,236;  310,455
246,604;  296,125;  282,526;  286,825
246,695;  286,825;  273,345;  272,135
246,787;  307,725;  293,526;  301,145
246,879;  320,225;  292,716;  297,145
246,971;  313,625;  299,276;  300,965
247,063;  287,725;  273,255;  278,605
247,155;  316,825;  294,516;  297,195
247,246;  302,525;  283,266;  283,715
247,338;  303,225;  288,116;  294,265
247,430;  323,825;  299,945;  303,475
247,522;  317,325;  297,546;  300,555
247,613;  306,625;  296,586;  299,675
247,705;  303,325;  286,896;  288,445
247,797;  324,325;  305,776;  307,475
247,889;  323,025;  294,706;  295,475
247,980;  324,825;  285,676;  291,995
248,072;  330,525;  282,845;  285,895
248,164;  350,325;  293,216;  298,385
248,256;  297,125;  271,366;  274,105
248,347;  334,325;  309,785;  311,065
248,439;  293,625;  283,165;  282,675
248,531;  329,625;  303,885;  304,835
248,622;  315,225;  307,206;  308,325
248,714;  293,125;  276,945;  278,365
248,806;  312,725;  293,655;  298,015
248,897;  308,225;  291,535;  292,985
248,989;  281,725;  263,956;  263,855
249,081;  293,725;  283,355;  284,905
249,172;  306,925;  289,926;  295,135
249,264;  294,025;  272,076;  273,435
249,356;  290,225;  269,326;  273,745
249,447;  302,125;  282,176;  284,525
249,539;  295,925;  283,086;  284,645
249,630;  301,325;  289,875;  288,495
249,722;  329,425;  313,276;  315,395
249,813;  303,125;  280,496;  284,125
249,905;  316,525;  289,426;  293,665
249,997;  297,425;  281,445;  280,615
250,088;  304,525;  282,255;  288,985
250,180;  303,425;  283,695;  284,575
250,271;  304,425;  281,195;  280,335
250,363;  337,125;  319,105;  320,755
250,454;  298,025;  273,035;  275,615
250,546;  308,425;  285,926;  289,415
250,637;  285,025;  264,445;  261,845
250,729;  301,225;  266,505;  269,555
250,820;  311,425;  289,915;  292,965
250,912;  286,725;  262,355;  267,085
251,003;  299,725;  278,396;  280,475
251,095;  306,125;  282,086;  284,555
251,186;  301,025;  271,415;  274,775
251,277;  302,625;  271,986;  275,265
251,369;  310,225;  275,975;  275,105
251,460;  308,325;  271,456;  273,815
251,552;  305,025;  278,475;  279,655
251,643;  301,825;  268,796;  267,375
251,735;  304,825;  265,246;  267,375
251,826;  302,325;  258,016;  263,245
251,917;  311,325;  278,035;  279,115
252,009;  329,525;  273,396;  275,605
252,100;  331,725;  281,426;  283,345
252,191;  347,825;  289,996;  292,015
252,283;  340,925;  265,095;  267,705
252,374;  365,325;  278,296;  278,375
252,465;  389,525;  295,405;  298,605
252,557;  383,125;  283,576;  286,365
252,648;  385,425;  265,146;  268,635
252,739;  421,725;  280,516;  282,125
252,831;  413,725;  270,836;  280,355
252,922;  454,625;  282,296;  280,045
253,013;  495,425;  273,956;  284,285
253,104;  557,225;  270,076;  270,335
253,196;  654,025;  271,366;  271,175
253,287;  811,225;  281,836;  277,135
253,378; 1176,825;  276,276;  277,975
253,469; 3736,425;  272,385;  276,445
253,561;20504,525;  273,496;  278,855
253,652;40325,523;  282,266;  280,015
253,743; 6584,025;  276,216;  280,985
253,834;  605,425;  259,146;  265,875
253,926;  493,625;  262,605;  267,485
254,017;  465,825;  284,236;  290,235
254,108;  439,725;  291,836;  290,565
254,199;  428,025;  285,326;  291,185
254,290;  431,325;  312,725;  313,865
254,381;  402,125;  287,076;  291,155
254,472;  408,225;  291,935;  300,495
254,564;  409,525;  312,766;  307,565
254,655;  396,825;  304,755;  308,105
254,746;  346,325;  264,896;  264,025
254,837;  381,325;  293,105;  298,435
254,928;  356,125;  266,836;  271,975
255,019;  359,825;  283,505;  286,805
255,110;  363,425;  300,165;  301,665
255,201;  342,525;  281,155;  287,655
255,292;  383,725;  312,706;  316,275
255,383;  350,125;  275,785;  275,725
255,474;  345,325;  273,306;  273,095
255,566;  343,825;  283,926;  286,645
255,657;  336,625;  298,556;  302,445
255,748;  313,525;  271,415;  278,125
255,839;  317,825;  280,695;  282,485
255,930;  332,225;  287,866;  289,735
256,021;  330,125;  298,845;  298,115
256,112;  316,825;  278,456;  278,735
256,203;  346,125;  311,866;  313,365
256,294;  326,425;  293,496;  299,575
256,384;  313,725;  270,565;  275,715
256,475;  312,125;  290,996;  294,595
256,566;  316,325;  281,246;  287,825
256,657;  297,625;  278,945;  278,915
256,748;  298,825;  281,285;  284,675
256,839;  297,525;  274,426;  273,555
256,930;  304,225;  279,165;  283,055
257,021;  331,425;  304,155;  306,465
257,112;  328,225;  304,926;  309,235
257,203;  284,925;  258,445;  259,825
257,294;  283,425;  254,465;  262,175
257,385;  306,425;  288,526;  294,205
257,475;  302,725;  279,135;  278,545
257,566;  316,425;  287,586;  292,255
257,657;  292,225;  269,595;  270,025
257,748;  280,725;  275,935;  276,095
257,839;  293,125;  287,915;  286,025
257,930;  299,525;  285,736;  290,395
258,020;  277,125;  269,716;  271,535
258,111;  277,325;  262,225;  263,255
258,202;  307,225;  288,326;  289,935
258,293;  292,825;  284,655;  285,305
258,384;  317,625;  305,595;  307,665
258,474;  304,725;  288,676;  291,995
258,565;  275,825;  271,635;  273,435
258,656;  306,625;  292,966;  295,145
258,747;  285,225;  271,475;  275,425
258,837;  286,525;  274,246;  273,695
258,928;  292,525;  275,785;  278,605
259,019;  279,525;  268,415;  270,595
259,109;  277,225;  269,685;  269,425
259,200;  297,225;  286,105;  289,815
259,291;  282,725;  269,975;  271,655
259,381;  307,925;  293,026;  295,635
259,472;  301,725;  295,796;  296,545
259,563;  316,925;  303,065;  305,845
259,653;  283,325;  278,296;  281,385
259,744;  282,925;  268,826;  267,735
259,835;  311,825;  300,975;  302,815
259,925;  287,025;  271,505;  277,075
260,016;  294,325;  286,746;  287,585
260,107;  272,725;  258,035;  264,715
260,197;  298,025;  283,975;  286,325
260,288;  292,225;  274,565;  279,155
260,378;  276,025;  267,195;  271,275
260,469;  299,225;  285,915;  288,765
260,560;  290,725;  266,146;  269,495
260,650;  285,125;  271,736;  275,665
260,741;  285,625;  276,366;  279,035
260,831;  286,825;  272,855;  275,905
260,922;  276,425;  266,206;  269,545
261,012;  273,625;  277,665;  278,255
261,103;  314,225;  301,785;  302,875
261,193;  310,825;  302,086;  303,915
261,284;  278,325;  271,806;  273,005
261,374;  308,025;  296,385;  303,855
261,465;  303,025;  287,755;  289,435
261,555;  284,325;  282,255;  280,715
261,646;  297,525;  292,475;  294,375
261,736;  302,725;  287,435;  290,535
261,827;  287,225;  283,716;  284,935
261,917;  310,025;  311,736;  311,595
262,007;  293,725;  283,986;  288,075
262,098;  289,025;  289,445;  287,725
262,188;  342,125;  326,655;  333,475
262,279;  307,825;  300,185;  299,795
262,369;  292,625;  286,285;  289,225
262,459;  293,525;  288,246;  290,365
262,550;  312,825;  303,266;  301,565
262,640;  291,225;  273,005;  276,555
262,731;  308,125;  300,935;  299,335
262,821;  329,625;  310,535;  312,255
262,911;  305,025;  297,875;  298,285
263,002;  297,125;  289,625;  290,825
263,092;  323,125;  303,956;  306,295
263,182;  296,525;  284,806;  285,755
263,273;  292,225;  285,426;  289,395
263,363;  300,325;  300,746;  299,385
263,453;  267,725;  267,375;  268,605
263,543;  297,525;  289,815;  289,615
263,634;  276,825;  266,516;  266,365
263,724;  300,825;  292,586;  293,065
263,814;  318,625;  308,706;  308,885
263,904;  298,425;  281,966;  285,905
263,995;  328,525;  322,276;  322,325
264,085;  309,525;  295,855;  294,575
264,175;  293,825;  296,706;  296,385
264,265;  335,825;  321,105;  321,865
264,356;  279,125;  270,466;  274,385
264,446;  318,725;  308,996;  307,575
264,536;  307,925;  294,026;  297,515
264,626;  325,325;  318,486;  320,175
264,716;  311,325;  298,435;  303,275
264,806;  319,525;  308,776;  310,415
264,897;  267,525;  258,135;  258,615
264,987;  301,125;  303,535;  304,475
265,077;  325,625;  287,046;  292,545
265,167;  365,625;  310,216;  311,575
265,257;  346,825;  290,445;  290,535
265,347;  324,525;  294,336;  295,795
265,437;  324,925;  296,176;  300,635
265,527;  322,025;  293,155;  294,765
265,617;  292,425;  279,875;  285,145
265,708;  327,025;  314,216;  314,825
265,798;  307,425;  305,415;  307,055
265,888;  307,725;  300,716;  305,545
265,978;  308,225;  294,496;  295,825
266,068;  316,825;  310,155;  315,855
266,158;  301,925;  294,005;  297,205
266,248;  279,025;  274,016;  276,865
266,338;  318,125;  313,035;  314,815
266,428;  307,025;  300,635;  302,655
266,518;  319,425;  311,405;  315,615
266,608;  303,125;  299,725;  294,215
266,698;  283,525;  273,586;  276,245
266,788;  278,325;  274,456;  277,745
266,878;  336,525;  325,776;  330,865
266,968;  310,925;  306,725;  309,425
267,058;  300,225;  297,375;  302,895
267,147;  306,825;  301,845;  302,905
267,237;  312,425;  291,815;  295,765
267,327;  289,025;  286,755;  287,895
267,417;  304,825;  301,225;  303,385
267,507;  304,325;  292,176;  294,215
267,597;  290,625;  282,026;  283,655
267,687;  295,225;  285,165;  287,755
267,777;  288,125;  283,986;  284,615
267,867;  319,225;  312,125;  312,585
267,956;  315,925;  302,466;  304,005
268,046;  313,525;  305,466;  310,865
268,136;  294,325;  296,875;  298,905
268,226;  282,125;  274,885;  274,965
268,316;  282,425;  280,766;  280,845
268,406;  303,225;  289,516;  287,595
268,495;  285,325;  284,415;  287,935
268,585;  309,125;  306,716;  309,605
268,675;  285,225;  284,336;  285,535
268,765;  306,225;  296,355;  300,115
268,854;  292,125;  285,935;  286,715
268,944;  298,725;  291,646;  293,805
269,034;  285,225;  283,986;  289,715
269,124;  293,425;  287,216;  290,705
269,213;  285,825;  286,336;  285,525
269,303;  294,525;  290,466;  288,585
269,393;  306,525;  299,845;  298,345
269,483;  312,825;  300,966;  302,735
269,572;  290,325;  282,875;  284,665
269,662;  296,725;  276,105;  283,315
269,752;  322,725;  312,736;  315,705
269,841;  277,525;  266,046;  269,455
269,931;  287,825;  281,586;  283,075
270,021;  306,725;  300,766;  304,675
270,110;  291,625;  285,695;  288,925
270,200;  302,925;  291,665;  299,445
270,289;  285,425;  280,785;  281,105
270,379;  310,625;  301,466;  302,775
270,469;  301,525;  290,556;  289,955
270,558;  310,625;  303,655;  302,185
270,648;  289,325;  282,785;  284,885
270,737;  293,225;  288,526;  291,525
270,827;  309,725;  310,185;  313,455
270,916;  296,625;  286,935;  289,915
271,006;  293,325;  293,475;  292,885
271,096;  323,625;  317,005;  317,215
271,185;  288,625;  289,896;  289,145
271,275;  306,625;  300,706;  303,575
271,364;  282,025;  281,535;  285,725
271,454;  303,925;  308,255;  315,275
271,543;  305,725;  296,935;  297,745
271,633;  299,925;  293,926;  292,835
271,722;  291,825;  292,255;  296,455
271,812;  294,525;  286,296;  289,275
271,901;  296,425;  292,326;  293,765
271,990;  291,525;  291,836;  290,915
272,080;  294,625;  290,635;  294,915
272,169;  305,025;  301,905;  302,555
272,259;  295,425;  293,225;  292,695
272,348;  307,925;  305,796;  308,535
272,438;  301,525;  296,935;  293,635
272,527;  306,125;  303,996;  304,365
272,616;  304,625;  301,866;  305,295
272,706;  327,025;  320,935;  323,195
272,795;  317,025;  314,076;  315,755
272,884;  295,225;  297,076;  299,515
272,974;  336,425;  317,975;  319,965
273,063;  336,225;  338,206;  337,765
273,152;  302,925;  310,306;  307,735
273,242;  326,625;  320,276;  324,915
273,331;  325,325;  319,315;  322,835
273,420;  307,425;  301,105;  310,255
273,510;  310,225;  307,355;  308,155
273,599;  309,225;  303,255;  306,195
273,688;  308,425;  302,605;  301,885
273,778;  282,325;  285,065;  287,095
273,867;  315,425;  320,266;  317,015
273,956;  315,825;  303,725;  303,805
274,045;  275,225;  273,966;  275,965
274,135;  299,325;  303,905;  305,375
274,224;  295,025;  286,516;  290,045
274,313;  308,425;  305,586;  307,745
274,402;  292,825;  284,796;  287,085
274,491;  315,025;  310,975;  312,995
274,581;  309,225;  301,415;  302,765
274,670;  303,425;  293,146;  294,385
274,759;  298,625;  299,405;  300,435
274,848;  276,525;  276,655;  279,925
274,937;  291,525;  289,945;  287,635
275,026;  285,125;  285,616;  287,835
275,116;  326,625;  316,415;  315,805
275,205;  294,125;  266,926;  271,135
275,294;  329,025;  302,315;  304,335
275,383;  315,025;  299,905;  297,985
275,472;  296,325;  290,005;  290,825
275,561;  297,225;  290,505;  290,285
275,650;  304,325;  306,046;  306,435
275,739;  311,625;  294,776;  297,985
275,828;  275,325;  274,635;  277,965
275,917;  306,925;  312,065;  306,825
276,006;  302,225;  295,426;  296,835
276,095;  298,425;  294,526;  298,665
276,184;  315,725;  309,556;  307,945
276,273;  310,525;  303,105;  304,505
276,362;  279,425;  275,896;  278,535
276,451;  297,125;  291,306;  291,915
276,540;  292,125;  295,896;  296,105
276,629;  287,925;  292,576;  293,225
276,718;  269,525;  270,695;  274,545
276,807;  272,625;  271,625;  274,825
276,896;  293,225;  280,526;  284,495
276,985;  292,425;  283,616;  289,365
277,074;  304,225;  299,105;  300,525
277,163;  306,325;  294,746;  299,085
277,252;  280,225;  279,646;  276,465
277,341;  290,125;  281,236;  289,265
277,430;  278,125;  276,845;  279,355
277,519;  312,125;  298,956;  301,695
277,608;  277,425;  266,546;  267,775
277,696;  275,225;  266,975;  269,445
277,785;  284,025;  284,095;  283,485
277,874;  313,125;  299,605;  296,795
277,963;  288,325;  288,155;  289,995
278,052;  261,625;  264,776;  265,525
278,141;  291,525;  288,415;  290,745
278,229;  302,825;  290,146;  291,935
278,318;  273,525;  268,236;  271,495
278,407;  297,925;  285,576;  285,935
278,496;  289,925;  289,915;  291,965
278,585;  307,225;  300,486;  302,275
278,673;  267,325;  263,836;  266,715
278,762;  267,825;  266,176;  270,485
278,851;  296,425;  285,496;  286,035
278,940;  307,025;  303,685;  303,305
279,028;  305,525;  296,306;  299,585
279,117;  294,225;  282,725;  286,655
279,206;  287,325;  279,475;  284,105
279,294;  288,425;  284,396;  286,665
279,383;  286,925;  286,646;  287,335
279,472;  298,225;  298,095;  298,295
279,561;  293,025;  283,355;  284,975
279,649;  315,825;  308,535;  308,935
279,738;  253,425;  255,566;  255,215
279,827;  314,225;  306,785;  308,805
279,915;  284,625;  275,285;  276,335
280,004;  295,725;  286,565;  288,905
280,092;  310,725;  305,236;  306,635
280,181;  277,625;  280,516;  282,605
280,270;  302,625;  277,866;  281,595
280,358;  302,725;  291,366;  288,915
280,447;  280,225;  261,415;  264,455
280,535;  282,025;  276,016;  275,945
280,624;  284,325;  274,185;  276,805
280,713;  294,025;  277,146;  283,385
280,801;  302,525;  293,116;  293,805
280,890;  299,025;  289,716;  295,475
280,978;  280,425;  280,755;  281,945
281,067;  255,925;  250,676;  255,865
281,155;  286,625;  274,855;  275,705
281,244;  330,825;  313,595;  316,445
281,332;  303,825;  290,845;  293,825
281,421;  274,225;  271,605;  273,675
281,509;  292,725;  284,646;  282,415
281,598;  262,025;  262,435;  263,765
281,686;  292,925;  290,776;  288,945
281,775;  291,925;  285,516;  290,815
281,863;  286,325;  278,016;  279,225
281,951;  279,825;  267,665;  270,735
282,040;  318,825;  300,315;  301,115
282,128;  300,925;  288,375;  294,235
282,217;  275,225;  265,926;  266,075
282,305;  306,525;  294,796;  294,045
282,393;  302,525;  286,505;  284,595
282,482;  292,325;  279,535;  283,255
282,570;  288,725;  266,945;  270,215
282,658;  289,725;  276,116;  277,715
282,747;  278,425;  265,026;  267,905
282,835;  319,625;  306,076;  309,035
282,923;  272,325;  264,655;  267,805
283,012;  303,725;  291,366;  296,345
283,100;  285,125;  269,185;  274,675
283,188;  269,525;  261,125;  262,525
283,277;  299,025;  284,336;  284,745
283,365;  291,725;  271,676;  278,375
283,453;  272,825;  264,755;  270,455
283,542;  308,725;  290,896;  293,765
283,630;  284,825;  276,195;  278,595
283,718;  281,125;  271,195;  274,365
283,806;  248,425;  241,706;  247,485
283,894;  273,425;  274,336;  274,395
283,983;  293,625;  282,165;  282,605
284,071;  293,325;  285,285;  291,495
284,159;  313,925;  309,125;  314,805
284,247;  297,225;  287,466;  288,555
284,335;  295,525;  286,935;  287,485
284,424;  292,225;  283,915;  288,465
284,512;  293,125;  283,475;  286,175
284,600;  288,925;  279,415;  280,145
284,688;  317,825;  312,815;  317,115
284,776;  281,825;  286,815;  287,745
284,864;  310,925;  302,125;  308,655
284,952;  308,225;  289,625;  289,025
285,041;  304,625;  298,255;  298,145
285,129;  305,925;  299,435;  302,445
285,217;  314,425;  300,056;  303,885
285,305;  327,325;  318,676;  319,885
285,393;  271,825;  275,776;  278,695
285,481;  302,025;  296,665;  298,405
285,569;  282,225;  282,966;  285,145
285,657;  310,025;  295,165;  296,255
285,745;  293,425;  292,655;  293,125
285,833;  295,325;  289,505;  293,165
285,921;  304,225;  298,116;  300,945
286,009;  306,825;  301,105;  303,655
286,097;  299,425;  298,236;  301,315
286,185;  293,325;  284,405;  284,795
286,273;  278,925;  283,415;  284,655
286,361;  308,625;  307,915;  311,825
286,449;  301,225;  296,195;  294,565
286,537;  310,325;  304,105;  302,085
286,625;  299,725;  291,185;  293,415
286,713;  280,025;  275,806;  280,315
286,801;  310,125;  312,076;  307,795
286,889;  325,925;  319,435;  320,055
286,976;  290,325;  287,905;  291,205
287,064;  309,125;  307,635;  311,875
287,152;  311,525;  303,576;  305,585
287,240;  317,025;  309,185;  308,845
287,328;  285,025;  287,685;  281,755
287,416;  299,725;  290,975;  292,385
287,504;  302,825;  294,435;  298,285
287,591;  303,525;  298,176;  300,225
287,679;  287,325;  286,095;  286,145
287,767;  303,425;  298,206;  296,985
287,855;  306,525;  303,736;  307,515
287,943;  311,325;  306,716;  309,435
288,030;  300,225;  293,456;  291,795
288,118;  320,425;  318,255;  318,995
288,206;  281,825;  274,956;  275,705
288,294;  311,325;  301,986;  304,135
288,382;  308,225;  300,776;  303,615
288,469;  310,725;  304,396;  308,895
288,557;  296,225;  294,095;  292,615
288,645;  326,525;  323,396;  323,315
288,732;  285,525;  278,915;  279,235
288,820;  308,925;  304,576;  306,785
288,908;  302,425;  304,826;  303,915
288,995;  318,325;  310,945;  310,305
289,083;  287,125;  293,026;  292,935
289,171;  331,225;  320,165;  325,565
289,258;  375,825;  322,176;  324,305
289,346;  434,525;  326,266;  329,365
289,434;  310,125;  303,435;  306,185
289,521;  294,025;  280,415;  286,295
289,609;  325,325;  320,426;  325,405
289,697;  314,725;  312,336;  315,125
289,784;  305,125;  295,445;  295,775
289,872;  317,525;  306,905;  313,015
289,959;  297,325;  282,375;  283,415
290,047;  293,025;  296,546;  300,865
290,134;  279,625;  272,665;  273,815
290,222;  307,025;  308,915;  308,665
290,310;  315,525;  304,905;  307,145
290,397;  326,825;  328,505;  332,835
290,485;  287,425;  290,815;  293,005
290,572;  323,025;  313,225;  314,645
290,660;  306,125;  306,385;  306,205
290,747;  301,425;  295,165;  292,775
290,835;  302,625;  299,016;  302,505
290,922;  302,525;  304,016;  305,515
291,009;  303,125;  297,676;  301,715
291,097;  308,325;  297,926;  300,755
291,184;  336,625;  332,716;  338,585
291,272;  280,125;  282,966;  288,375
291,359;  290,025;  283,915;  289,305
291,447;  312,725;  303,086;  304,735
291,534;  332,725;  327,326;  323,005
291,621;  299,525;  302,845;  301,105
291,709;  294,225;  285,716;  283,705
291,796;  325,525;  320,146;  316,555
291,884;  297,925;  291,466;  296,115
291,971;  313,025;  315,065;  320,295
292,058;  297,625;  288,725;  288,985
292,146;  301,425;  293,746;  297,955
292,233;  290,025;  285,426;  284,765
292,320;  301,125;  294,306;  297,685
292,408;  324,125;  309,086;  308,565
292,495;  311,625;  290,565;  293,085
292,582;  283,425;  286,845;  287,375
292,669;  285,725;  281,415;  286,055
292,757;  290,325;  282,176;  283,865
292,844;  312,325;  312,935;  313,175
292,931;  288,225;  275,176;  277,485
293,018;  292,825;  291,516;  289,915
293,106;  303,225;  299,966;  303,035
293,193;  277,125;  272,415;  274,385
293,280;  309,825;  297,255;  303,635
293,367;  295,825;  296,956;  295,215
293,455;  289,525;  293,185;  294,155
293,542;  285,225;  275,695;  281,445
293,629;  272,225;  279,035;  281,855
293,716;  315,525;  305,646;  311,195
293,803;  295,525;  287,105;  287,695
293,890;  315,325;  310,336;  312,555
293,978;  290,225;  284,105;  290,755
294,065;  286,825;  286,725;  284,345
294,152;  316,925;  302,385;  304,355
294,239;  275,625;  275,646;  274,625
294,326;  290,625;  286,746;  290,635
294,413;  286,925;  278,046;  278,465
294,500;  308,425;  292,586;  295,255
294,587;  289,525;  283,915;  287,195
294,674;  322,825;  305,875;  306,925
294,761;  308,825;  288,896;  287,945
294,848;  296,425;  286,866;  294,115
294,935;  298,025;  290,746;  290,555
295,022;  277,025;  272,396;  274,105
295,109;  266,425;  258,466;  262,665
295,196;  292,925;  291,405;  295,265
295,283;  275,925;  281,176;  278,745
295,370;  316,125;  308,975;  312,155
295,457;  299,125;  289,986;  290,435
295,544;  286,725;  285,105;  287,985
295,631;  291,125;  290,165;  295,805
295,718;  284,025;  272,676;  274,015
295,805;  295,025;  296,225;  296,685
295,892;  302,225;  300,005;  304,445
295,979;  292,825;  291,266;  292,755
296,066;  302,925;  293,996;  296,145
296,153;  317,925;  296,026;  296,355
296,240;  307,525;  299,206;  300,535
296,327;  304,725;  285,206;  285,615
296,413;  318,925;  301,285;  305,075
296,500;  331,225;  302,755;  305,145
296,587;  517,425;  288,616;  286,065
296,674; 1585,125;  294,396;  297,335
296,761;  820,625;  300,095;  298,245
296,848;  319,525;  281,956;  285,815
296,934;  293,525;  290,966;  295,265
297,021;  290,925;  292,565;  292,975
297,108;  292,225;  276,366;  280,895
297,195;  291,825;  291,466;  294,705
297,282;  301,225;  286,535;  286,195
297,368;  311,725;  310,026;  305,975
297,455;  280,925;  279,155;  283,145
297,542;  306,925;  311,375;  313,235
297,629;  302,625;  299,016;  300,205
297,715;  304,625;  308,285;  310,385
297,802;  304,625;  300,466;  303,285
297,889;  313,925;  311,716;  313,025
297,975;  330,425;  322,836;  323,685
298,062;  319,425;  310,505;  312,995
298,149;  281,625;  273,505;  274,905
298,235;  301,525;  291,135;  294,075
298,322;  293,525;  294,806;  292,785
298,409;  306,625;  311,195;  312,715
298,495;  277,425;  285,435;  283,435
298,582;  312,925;  307,516;  308,065
298,669;  296,525;  290,526;  294,245
298,755;  305,225;  299,065;  302,235
298,842;  304,525;  304,755;  309,095
298,928;  309,225;  303,855;  304,595
299,015;  290,425;  294,896;  296,705
299,102;  326,025;  318,986;  320,565
299,188;  317,225;  315,956;  316,045
299,275;  307,625;  309,926;  309,365
299,361;  281,225;  278,875;  281,665
299,448;  308,225;  312,466;  310,885
299,534;  307,625;  312,355;  312,735
299,621;  312,625;  304,655;  303,865
299,707;  312,425;  299,016;  304,675
299,794;  323,025;  319,885;  319,685
299,880;  321,125;  317,076;  318,325
299,967;  292,925;  296,345;  296,295
300,053;  290,625;  295,935;  299,065
300,140;  332,825;  323,086;  328,875
300,226;  321,025;  313,885;  313,595
300,312;  307,525;  307,276;  306,695
300,399;  306,025;  305,505;  308,465
300,485;  306,525;  297,776;  301,725
300,572;  284,625;  281,655;  281,655
300,658;  297,725;  297,216;  294,585
300,744;  313,925;  310,706;  311,315
300,831;  321,425;  313,595;  318,275
300,917;  329,325;  321,676;  320,915
301,004;  313,825;  311,556;  311,015
301,090;  279,525;  277,785;  280,095
301,176;  289,125;  284,255;  288,205
301,263;  318,725;  313,676;  314,925
301,349;  295,325;  289,475;  293,305
301,435;  285,725;  284,276;  285,095
301,521;  319,925;  314,625;  313,245
301,608;  319,325;  314,695;  315,515
301,694;  303,925;  297,896;  300,535
301,780;  309,425;  303,046;  298,285
301,867;  284,425;  280,836;  285,265
301,953;  301,525;  296,595;  301,165
302,039;  376,225;  295,116;  297,515
302,125;  533,425;  298,445;  304,125
302,211;  368,225;  332,926;  334,115
302,298;  350,925;  301,926;  305,295
302,384;  300,025;  281,116;  287,095
302,470;  300,425;  289,505;  291,305
302,556;  298,825;  301,935;  305,645
302,642;  299,325;  293,456;  295,155
302,729;  302,125;  289,306;  293,525
302,815;  328,925;  317,966;  319,775
302,901;  302,225;  296,475;  298,745
302,987;  313,025;  307,716;  308,245
303,073;  306,525;  304,185;  302,795
303,159;  299,025;  296,945;  298,695
303,245;  290,525;  284,336;  290,495
303,331;  284,525;  283,486;  286,455
303,417;  294,325;  294,556;  296,145
303,503;  308,925;  310,046;  312,155
303,590;  295,525;  289,146;  291,705
303,676;  313,025;  299,505;  300,385
303,762;  287,225;  287,185;  287,835
303,848;  318,925;  311,026;  312,055
303,934;  305,725;  304,915;  307,775
304,020;  309,525;  301,796;  304,745
304,106;  312,025;  309,975;  314,015
304,192;  291,825;  291,796;  296,765
304,278;  312,525;  302,896;  304,455
304,364;  324,925;  323,026;  324,755
304,450;  309,025;  301,496;  304,095
304,535;  309,025;  304,005;  304,245
304,621;  304,825;  301,565;  302,205
304,707;  311,225;  306,296;  307,635
304,793;  319,225;  318,625;  318,575
304,879;  320,225;  306,776;  310,585
304,965;  318,925;  312,845;  313,365
305,051;  319,125;  308,616;  311,355
305,137;  315,025;  318,146;  324,235
305,223;  290,925;  291,445;  293,725
305,309;  311,025;  313,496;  317,755
305,394;  318,125;  311,996;  311,465
305,480;  309,325;  299,426;  304,775
305,566;  312,625;  309,355;  310,525
305,652;  311,825;  313,605;  317,885
305,738;  346,725;  349,206;  353,435
305,824;  311,025;  316,016;  315,095
305,909;  329,425;  323,815;  325,155
305,995;  285,825;  289,595;  290,025
306,081;  335,225;  348,345;  350,435
306,167;  302,525;  303,966;  307,875
306,252;  324,225;  324,375;  325,505
306,338;  341,525;  331,366;  335,515
306,424;  307,225;  306,595;  307,415
306,510;  316,025;  316,105;  319,795
306,595;  325,325;  323,685;  322,125
306,681;  312,125;  316,926;  318,895
306,767;  314,725;  305,336;  309,425
306,852;  328,025;  328,255;  331,375
306,938;  318,225;  325,796;  325,905
307,024;  309,725;  302,875;  304,755
307,109;  341,925;  336,065;  338,965
307,195;  318,425;  316,326;  318,385
307,281;  318,025;  318,716;  318,575
307,366;  319,525;  313,345;  310,455
307,452;  318,325;  312,426;  316,335
307,537;  300,025;  296,776;  298,485
307,623;  292,925;  292,105;  296,985
307,709;  311,125;  309,885;  310,795
307,794;  285,925;  288,576;  291,835
307,880;  323,025;  320,236;  319,735
307,965;  314,125;  307,456;  307,525
308,051;  295,425;  297,195;  298,065
308,136;  298,725;  297,165;  296,745
308,222;  306,025;  300,366;  302,045
308,307;  296,225;  295,116;  296,645
308,393;  298,725;  295,535;  300,335
308,478;  317,525;  321,826;  318,975
308,564;  300,225;  295,516;  288,925
308,649;  306,025;  308,496;  308,295
308,735;  298,625;  294,155;  300,535
308,820;  320,625;  320,655;  319,455
308,906;  297,925;  291,625;  300,515
308,991;  347,225;  341,076;  338,375
309,076;  332,325;  319,336;  320,645
309,162;  287,225;  283,945;  283,805
309,247;  310,525;  309,945;  308,415
309,333;  294,025;  291,646;  297,855
309,418;  306,925;  298,665;  301,955
309,503;  302,525;  297,646;  300,235
309,589;  299,925;  303,725;  305,345
309,674;  297,625;  290,945;  289,235
309,759;  314,425;  303,315;  304,195
309,845;  312,525;  311,016;  312,415
309,930;  301,225;  305,966;  307,375
310,015;  286,425;  276,095;  276,835
310,101;  321,425;  315,616;  319,905
310,186;  289,125;  285,426;  288,565
310,271;  303,125;  297,296;  298,295
310,357;  290,025;  297,526;  296,455
310,442;  309,125;  302,445;  303,865
310,527;  295,825;  297,766;  301,125
310,612;  283,025;  278,195;  281,425
310,698;  323,525;  319,725;  321,135
310,783;  310,625;  301,176;  302,685
310,868;  302,525;  294,285;  295,125
310,953;  288,225;  284,165;  285,195
311,038;  305,825;  311,146;  310,075
311,124;  293,025;  294,635;  290,925
311,209;  285,425;  276,736;  277,355
311,294;  310,825;  310,206;  312,575
311,379;  287,325;  276,785;  277,345
311,464;  302,425;  297,405;  297,635
311,549;  293,425;  282,385;  284,505
311,634;  282,825;  290,396;  286,805
311,719;  317,525;  316,016;  315,415
311,805;  306,725;  289,266;  291,605
311,890;  309,325;  295,165;  295,925
311,975;  297,225;  281,526;  286,055
312,060;  313,225;  298,146;  302,435
312,145;  284,425;  277,586;  276,025
312,230;  320,525;  290,815;  296,495
312,315;  337,925;  294,065;  296,045
312,400;  401,825;  296,396;  299,795
312,485; 1541,125;  290,535;  292,475
312,570; 1261,925;  277,125;  279,615
312,655;  350,725;  308,176;  313,325
312,740;  333,625;  301,616;  302,005
312,825;  346,025;  304,105;  307,725
312,910;  356,725;  307,736;  309,235
312,995;  444,825;  296,236;  298,245
313,080; 1916,725;  285,655;  286,805
313,165; 2188,725;  303,565;  305,305
313,250;  363,625;  287,276;  287,825
313,335;  334,525;  307,435;  312,125
313,419;  279,325;  267,466;  268,635
313,504;  332,625;  313,355;  315,225
313,589;  313,225;  295,216;  297,545
313,674;  326,625;  307,206;  310,085
313,759;  295,025;  281,556;  282,625
313,844;  305,225;  292,776;  291,005
313,929;  301,825;  289,945;  291,695
314,014;  321,825;  313,306;  315,005
314,098;  310,425;  299,035;  300,425
314,183;  265,225;  263,505;  263,795
314,268;  294,325;  296,496;  298,955
314,353;  307,725;  302,026;  306,185
314,438;  322,525;  306,905;  311,515
314,522;  313,225;  309,486;  308,535
314,607;  307,425;  307,565;  307,855
314,692;  309,025;  301,885;  303,855
314,777;  294,525;  291,766;  292,395
314,861;  275,725;  277,285;  276,385
314,946;  318,425;  315,116;  317,565
315,031;  296,725;  291,875;  294,115
315,115;  316,525;  306,206;  308,065
315,200;  321,925;  312,146;  313,065
315,285;  300,925;  289,486;  289,595
315,369;  297,725;  287,945;  288,545
315,454;  316,625;  311,905;  311,025
315,539;  318,825;  310,246;  307,795
315,623;  315,925;  309,426;  313,225
315,708;  330,725;  335,605;  336,825
315,793;  303,925;  297,986;  298,155
315,877;  310,525;  302,975;  305,445
315,962;  297,725;  289,105;  291,925
316,046;  330,925;  317,065;  319,225
316,131;  333,025;  334,516;  337,215
316,216;  325,225;  310,315;  310,785
316,300;  305,625;  303,345;  302,165
316,385;  327,025;  325,315;  324,305
316,469;  330,025;  330,625;  331,955
316,554;  305,625;  296,005;  298,425
316,638;  297,025;  296,725;  301,565
316,723;  295,825;  292,546;  293,795
316,807;  300,125;  299,595;  299,275
316,892;  295,725;  288,975;  289,925
316,976;  316,925;  314,405;  316,505
317,061;  310,625;  306,035;  305,965
317,145;  327,325;  327,655;  325,965
317,230;  324,925;  321,505;  319,905
317,314;  279,425;  275,565;  275,085
317,398;  322,625;  310,706;  312,245
317,483;  288,125;  290,026;  291,085
317,567;  319,025;  315,326;  317,865
317,652;  286,225;  283,526;  286,625
317,736;  315,525;  308,776;  309,285
317,820;  335,525;  329,005;  334,665
317,905;  307,325;  306,706;  307,035
317,989;  296,025;  298,285;  300,875
318,073;  302,425;  298,076;  297,705
318,158;  291,025;  284,966;  285,565
318,242;  299,325;  296,845;  299,095
318,326;  292,125;  283,155;  284,015
318,411;  293,925;  295,125;  296,565
318,495;  297,925;  285,776;  287,165
318,579;  284,325;  288,746;  289,305
318,664;  284,225;  280,315;  284,255
318,748;  313,825;  305,996;  310,145
318,832;  290,025;  290,806;  289,475
318,916;  279,025;  274,785;  277,335
319,001;  309,725;  299,945;  301,485
319,085;  299,725;  292,885;  290,905
319,169;  295,325;  293,396;  294,485
319,253;  291,825;  287,216;  285,525
319,337;  309,125;  306,246;  304,885
319,422;  320,125;  316,125;  313,225
319,506;  285,725;  283,326;  285,905
319,590;  303,925;  303,915;  305,525
319,674;  295,425;  291,926;  295,405
319,758;  298,625;  295,165;  300,215
319,842;  311,225;  306,135;  309,155
319,926;  306,825;  294,815;  295,205
320,010;  269,025;  267,046;  269,575
320,095;  292,025;  280,926;  284,685
320,179;  275,825;  279,125;  281,175
320,263;  279,825;  277,385;  285,805
320,347;  279,125;  271,296;  279,075
320,431;  275,325;  273,435;  274,355
320,515;  297,025;  296,375;  299,935
320,599;  276,025;  269,866;  273,825
320,683;  308,425;  305,706;  305,495
320,767;  263,525;  266,236;  266,205
320,851;  287,825;  281,855;  287,785
320,935;  318,625;  312,565;  318,275
321,019;  295,825;  292,975;  290,075
321,103;  285,225;  278,135;  280,585
321,187;  281,925;  273,165;  273,265
321,271;  297,325;  294,616;  296,825
321,355;  286,625;  281,595;  283,805
321,439;  311,925;  301,216;  301,725
321,523;  285,425;  282,266;  284,705
321,606;  288,225;  287,426;  288,215
321,690;  286,825;  287,026;  288,215
321,774;  301,325;  288,336;  292,205
321,858;  286,725;  292,966;  291,945
321,942;  295,525;  294,276;  298,975
322,026;  286,725;  283,315;  282,695
322,110;  295,725;  293,146;  295,755
322,194;  291,025;  295,355;  301,055
322,277;  286,625;  286,135;  287,285
322,361;  283,325;  278,595;  281,215
322,445;  305,025;  289,315;  291,095
322,529;  303,425;  297,716;  299,645
322,613;  298,825;  297,206;  297,795
322,696;  286,525;  267,695;  272,865
322,780;  280,725;  283,026;  283,485
322,864;  275,825;  272,625;  279,835
322,948;  300,925;  292,326;  295,965
323,031;  283,225;  281,565;  282,215
323,115;  289,425;  284,586;  285,215
323,199;  298,125;  296,565;  299,105
323,282;  310,125;  307,496;  310,065
323,366;  285,625;  287,296;  293,625
323,450;  272,525;  273,496;  275,835
323,533;  314,625;  314,576;  317,415
323,617;  275,025;  268,695;  271,585
323,701;  287,625;  281,105;  283,575
323,784;  291,825;  292,576;  294,205
323,868;  286,125;  297,866;  299,875
323,952;  295,325;  290,966;  294,175
324,035;  308,025;  305,926;  310,825
324,119;  298,825;  295,466;  298,455
324,202;  286,925;  286,836;  292,745
324,286;  288,925;  284,986;  286,605
324,370;  295,725;  293,105;  296,765
324,453;  305,625;  299,616;  301,745
324,537;  294,225;  294,426;  298,035
324,620;  292,625;  286,635;  291,765
324,704;  280,525;  270,445;  276,525
324,787;  289,325;  294,875;  296,265
324,871;  311,225;  310,986;  315,255
324,954;  322,325;  312,246;  315,985
325,038;  313,525;  306,466;  306,985
325,121;  315,625;  308,695;  312,075
325,205;  288,725;  290,396;  293,295
325,288;  288,725;  279,556;  285,675
325,371;  308,825;  298,945;  302,395
325,455;  318,525;  314,026;  312,045
325,538;  290,025;  281,516;  287,185
325,622;  319,925;  320,806;  321,295
325,705;  297,225;  297,716;  298,675
325,788;  316,025;  313,625;  316,645
325,872;  293,525;  300,796;  300,745
325,955;  327,425;  319,845;  325,065
326,039;  310,325;  309,576;  312,795
326,122;  316,825;  310,746;  311,665
326,205;  321,225;  311,806;  310,235
326,289;  316,025;  313,986;  319,245
326,372;  307,225;  294,746;  299,195
326,455;  332,625;  323,095;  324,405
326,538;  316,825;  312,336;  316,545
326,622;  325,225;  318,396;  320,075
326,705;  290,725;  287,315;  287,875
326,788;  329,525;  321,266;  322,405
326,871;  312,525;  315,576;  317,965
326,955;  308,325;  313,836;  315,225
327,038;  314,525;  310,116;  310,855
327,121;  315,125;  301,516;  307,855
327,204;  320,325;  313,216;  314,045
327,288;  329,925;  328,956;  332,375
327,371;  296,025;  288,185;  296,955
327,454;  318,425;  313,065;  313,845
327,537;  297,825;  299,815;  302,435
327,620;  330,725;  322,935;  330,145
327,703;  311,725;  309,076;  310,615
327,786;  311,525;  311,076;  312,115
327,870;  334,225;  323,155;  328,715
327,953;  304,225;  301,155;  305,785
328,036;  299,525;  293,105;  299,035
328,119;  331,225;  317,576;  321,135
328,202;  301,725;  301,885;  305,875
328,285;  324,725;  326,776;  329,015
328,368;  320,325;  320,935;  322,625
328,451;  321,325;  320,635;  322,565
328,534;  308,225;  301,266;  307,075
328,617;  307,225;  305,676;  311,785
328,700;  334,225;  326,505;  326,695
328,783;  319,925;  320,785;  322,875
328,866;  320,325;  314,095;  319,935
328,949;  327,925;  319,966;  326,555
329,032;  303,325;  297,826;  300,605
329,115;  297,725;  290,905;  295,945
329,198;  283,625;  282,956;  283,785
329,281;  311,425;  299,336;  298,465
329,364;  311,225;  316,246;  319,245
329,447;  313,625;  307,176;  309,255
329,530;  330,025;  328,155;  328,175
329,613;  296,825;  300,565;  306,725
329,696;  324,425;  326,806;  330,715
329,778;  324,025;  311,306;  316,915
329,861;  297,725;  295,236;  299,565
329,944;  330,325;  321,685;  327,225
330,027;  316,825;  311,576;  315,115
330,110;  313,525;  307,595;  311,705
330,193;  292,825;  295,306;  299,955
330,275;  323,725;  312,296;  315,835
330,358;  296,225;  291,776;  296,185
330,441;  327,225;  323,586;  325,365
330,524;  309,625;  305,216;  311,095
330,607;  303,425;  304,345;  306,905
330,689;  314,225;  313,105;  314,535
330,772;  320,225;  311,105;  312,425
330,855;  331,525;  325,065;  327,855
330,938;  316,725;  312,315;  321,275
331,020;  319,025;  317,176;  320,535
331,103;  299,025;  293,035;  294,505
331,186;  311,625;  305,146;  307,085
331,268;  304,725;  293,565;  298,695
331,351;  314,325;  313,026;  316,455
331,434;  320,125;  308,385;  312,645
331,516;  323,925;  319,076;  321,185
331,599;  309,325;  297,095;  301,425
331,682;  311,625;  310,736;  310,985
331,764;  291,225;  293,326;  297,915
331,847;  319,525;  313,716;  315,705
331,929;  287,125;  290,026;  293,225
332,012;  319,425;  309,625;  310,055
332,095;  323,625;  323,306;  326,625
332,177;  323,625;  320,806;  324,285
332,260;  330,925;  327,526;  328,035
332,342;  312,025;  309,246;  314,445
332,425;  313,125;  312,516;  311,505
332,507;  310,525;  308,526;  311,575
332,590;  291,925;  287,595;  291,655
332,672;  291,025;  294,885;  298,455
332,755;  317,025;  306,855;  311,605
332,837;  310,925;  310,716;  312,255
332,920;  317,425;  309,076;  315,155
333,002;  328,225;  325,676;  328,895
333,085;  316,425;  313,375;  315,165
333,167;  303,425;  296,875;  298,575
333,249;  305,025;  294,526;  298,145
333,332;  302,325;  293,296;  297,715
333,414;  304,325;  300,035;  304,875
333,497;  302,625;  300,255;  302,305
333,579;  311,825;  300,996;  306,375
333,661;  316,725;  319,706;  320,745
333,744;  294,825;  293,695;  297,125
333,826;  316,125;  305,766;  306,065
333,908;  321,425;  313,896;  316,665
333,991;  315,225;  291,266;  291,545
334,073;  472,625;  312,706;  318,525
334,155;  363,325;  304,086;  305,525
334,238;  322,825;  318,576;  326,145
334,320;  311,925;  297,046;  300,585
334,402;  308,425;  302,996;  304,895
334,485;  305,825;  303,655;  304,015
334,567;  302,025;  299,776;  301,975
334,649;  275,325;  278,426;  282,925
334,731;  317,325;  313,456;  317,305
334,813;  331,925;  315,605;  320,355
334,896;  290,025;  290,185;  294,595
334,978;  305,525;  309,165;  302,585
335,060;  314,325;  304,255;  304,235
335,142;  305,825;  301,665;  302,275
335,224;  304,625;  309,766;  311,745
335,307;  305,525;  297,456;  298,965
335,389;  312,025;  310,385;  317,305
335,471;  295,325;  299,896;  306,115
335,553;  323,125;  319,866;  318,905
335,635;  319,825;  312,836;  315,315
335,717;  305,625;  298,195;  300,145
335,799;  334,125;  322,695;  323,585
335,881;  279,225;  278,385;  282,845
335,963;  295,225;  291,796;  293,005
336,045;  291,725;  295,516;  301,085
336,128;  276,625;  270,945;  275,225
336,210;  288,625;  288,996;  292,295
336,292;  294,325;  297,845;  300,615
336,374;  309,425;  300,956;  306,155
336,456;  279,625;  285,616;  288,495
336,538;  298,825;  303,165;  304,435
336,620;  309,825;  310,576;  312,205
336,702;  292,225;  294,766;  294,235
336,783;  307,725;  302,556;  304,225
336,865;  310,925;  304,176;  305,725
336,947;  310,925;  308,486;  311,205
337,029;  285,025;  281,826;  282,945
337,111;  322,325;  316,266;  316,735
337,193;  281,525;  280,986;  284,795
337,275;  319,625;  310,815;  314,535
337,357;  317,525;  318,815;  324,805
337,439;  297,325;  305,255;  310,655
337,521;  273,225;  277,225;  280,915
337,602;  300,525;  298,435;  301,085
337,684;  316,725;  315,635;  317,455
337,766;  311,925;  312,266;  312,305
337,848;  310,125;  295,086;  301,025
337,930;  299,925;  303,165;  306,525
338,012;  301,725;  298,586;  299,555
338,093;  318,925;  312,396;  315,895
338,175;  323,525;  318,195;  321,575
338,257;  311,725;  306,945;  309,225
338,339;  294,825;  294,086;  300,165
338,420;  312,925;  310,986;  310,895
338,502;  300,525;  298,836;  304,265
338,584;  300,225;  286,736;  289,235
338,666;  315,025;  303,426;  302,365
338,747;  328,825;  330,806;  334,875
338,829;  308,425;  309,176;  309,265
338,911;  304,525;  296,236;  298,915
338,992;  294,925;  295,746;  294,435
339,074;  305,925;  306,155;  307,855
339,156;  301,125;  298,176;  303,395
339,237;  329,725;  325,035;  327,765
339,319;  296,925;  294,935;  300,045
339,400;  307,125;  309,065;  311,225
339,482;  270,525;  278,165;  280,605
339,564;  318,425;  317,026;  316,575
339,645;  307,725;  304,595;  308,105
339,727;  291,925;  290,216;  294,375
339,808;  322,125;  317,685;  322,555
339,890;  302,325;  299,956;  302,415
339,971;  318,525;  307,016;  315,055
340,053;  342,725;  336,746;  335,255
340,134;  297,225;  296,535;  298,415
340,216;  321,725;  315,556;  319,645
340,297;  300,525;  298,396;  301,525
340,379;  318,725;  314,736;  316,975
340,460;  312,225;  306,685;  306,615
340,542;  300,025;  294,535;  297,775
340,623;  309,925;  307,926;  312,435
340,705;  305,225;  297,516;  295,795
340,786;  290,225;  289,685;  291,925
340,868;  306,225;  308,826;  304,055
340,949;  283,525;  285,605;  286,145
341,030;  330,325;  321,435;  328,715
341,112;  279,125;  280,565;  284,075
341,193;  267,525;  270,135;  273,595
341,274;  324,125;  322,176;  320,965
341,356;  325,225;  320,716;  321,795
341,437;  305,325;  301,635;  300,825
341,518;  314,125;  307,176;  314,795
341,600;  321,025;  320,866;  322,465
341,681;  327,925;  328,866;  332,375
341,762;  326,925;  325,206;  323,705
341,844;  289,725;  287,146;  292,185
341,925;  305,625;  308,225;  311,205
342,006;  323,325;  320,426;  323,055
342,087;  294,525;  288,095;  292,095
342,169;  312,025;  307,026;  309,845
342,250;  288,025;  286,935;  285,935
342,331;  299,225;  298,706;  299,075
342,412;  321,325;  307,655;  310,045
342,493;  291,325;  289,415;  293,325
342,575;  330,925;  327,095;  327,355
342,656;  314,425;  318,466;  318,265
342,737;  332,025;  329,836;  330,295
342,818;  311,025;  307,996;  309,015
342,899;  314,225;  314,505;  317,165
342,980;  311,125;  306,695;  310,155
343,061;  310,925;  303,065;  304,715
343,143;  316,625;  319,535;  319,565
343,224;  314,725;  306,706;  305,915
343,305;  304,925;  299,625;  303,115
343,386;  303,325;  297,996;  300,475
343,467;  299,125;  303,155;  305,535
343,548;  308,125;  304,176;  305,935
343,629;  314,825;  316,405;  317,625
343,710;  317,425;  322,766;  321,015
343,791;  318,725;  325,065;  327,935
343,872;  294,325;  298,975;  297,795
343,953;  315,325;  314,826;  316,625
344,034;  319,625;  319,475;  324,485
344,115;  304,425;  304,255;  303,425
344,196;  297,025;  298,935;  302,165
344,277;  296,825;  293,306;  294,615
344,358;  307,425;  304,755;  307,345
344,439;  288,025;  293,975;  294,205
344,520;  304,425;  298,546;  300,975
344,601;  321,625;  314,646;  315,525
344,681;  306,725;  302,426;  303,825
344,762;  292,425;  283,466;  287,625
344,843;  273,425;  275,996;  281,125
344,924;  310,125;  303,635;  306,085
345,005;  290,125;  287,176;  288,725
345,086;  313,325;  307,665;  309,725
345,167;  295,025;  293,986;  295,575
345,247;  323,925;  323,896;  328,905
345,328;  325,125;  315,315;  317,705
345,409;  304,025;  307,056;  309,355
345,490;  310,025;  308,415;  314,245
345,571;  305,725;  304,875;  312,045
345,651;  283,625;  279,456;  279,055
345,732;  308,225;  307,285;  312,275
345,813;  323,025;  311,836;  317,355
345,894;  276,225;  285,785;  287,595
345,974;  310,425;  309,556;  311,845
346,055;  296,925;  296,435;  295,735
346,136;  310,725;  304,405;  306,245
346,216;  326,725;  324,945;  328,565
346,297;  307,125;  306,565;  304,225
346,378;  290,725;  291,996;  294,005
346,458;  317,025;  307,375;  313,405
346,539;  303,525;  302,306;  305,975
346,620;  317,525;  305,815;  306,685
346,700;  281,925;  288,755;  289,765
346,781;  285,825;  284,556;  286,765
346,861;  310,825;  304,336;  307,325
346,942;  303,825;  304,336;  302,715
347,023;  321,725;  317,885;  316,005
347,103;  299,525;  297,396;  302,825
347,184;  292,125;  294,475;  296,785
347,264;  286,825;  294,565;  296,805
347,345;  292,125;  290,526;  295,525
347,425;  293,725;  285,125;  290,565
347,506;  289,125;  283,595;  283,195
347,586;  287,825;  289,725;  292,435
347,667;  300,725;  307,616;  304,445
347,747;  303,325;  311,116;  310,775
347,828;  303,225;  296,486;  296,465
347,908;  299,825;  303,306;  307,175
347,988;  302,025;  298,655;  306,125
348,069;  315,725;  311,056;  311,395
348,149;  313,525;  303,956;  309,065
348,230;  306,425;  309,956;  310,945
348,310;  272,925;  284,185;  285,715
348,390;  289,525;  288,526;  288,625
348,471;  301,025;  303,665;  305,125
348,551;  294,225;  290,695;  293,935
348,632;  286,025;  289,505;  294,065
348,712;  286,025;  292,706;  295,115
348,792;  322,225;  329,836;  329,985
348,873;  283,425;  281,905;  283,045
348,953;  285,025;  289,845;  290,395
349,033;  302,025;  297,466;  299,465
349,113;  287,325;  286,076;  286,905
349,194;  296,125;  301,595;  304,825
349,274;  314,425;  304,796;  307,395
349,354;  310,225;  303,046;  308,435
349,434;  297,125;  300,116;  301,925
349,515;  328,325;  316,486;  322,185
349,595;  301,925;  302,206;  302,035
349,675;  308,625;  305,635;  308,015
349,755;  301,425;  296,746;  297,615
349,835;  310,425;  301,195;  307,695
349,916;  290,425;  298,435;  303,915
349,996;  294,525;  291,105;  291,745
350,076;  318,925;  312,375;  317,645
350,156;  291,925;  284,836;  287,665
350,236;  316,725;  314,116;  311,925
350,316;  298,425;  292,975;  295,765
350,396;  297,025;  305,646;  310,065
350,476;  310,925;  301,826;  304,275
350,556;  298,125;  293,966;  299,935
350,637;  323,525;  321,005;  321,825
350,717;  300,325;  288,445;  291,825
350,797;  308,125;  302,616;  305,905
350,877;  292,025;  289,875;  294,705
350,957;  302,425;  297,635;  300,095
351,037;  299,525;  298,556;  303,455
351,117;  302,225;  296,276;  296,555
351,197;  308,125;  303,366;  306,305
351,277;  300,625;  300,556;  301,575
351,357;  313,425;  308,806;  314,445
351,437;  309,825;  306,105;  307,755
351,516;  318,825;  317,986;  318,355
351,596;  286,825;  292,896;  296,025
351,676;  286,125;  290,405;  294,265
351,756;  321,825;  323,426;  326,135
351,836;  322,225;  313,866;  317,935
351,916;  298,425;  297,905;  298,975
351,996;  302,725;  303,996;  305,265
352,076;  303,625;  303,486;  303,085
352,156;  311,625;  319,556;  320,405
352,235;  293,725;  301,255;  300,955
352,315;  311,025;  312,456;  314,415
352,395;  309,625;  308,206;  309,425
352,475;  319,725;  315,405;  320,955
352,555;  331,925;  330,236;  330,635
352,634;  330,225;  321,956;  326,705
352,714;  310,425;  302,595;  304,055
352,794;  356,325;  354,466;  358,075
352,874;  325,125;  314,685;  317,555
352,953;  331,425;  337,676;  339,095
353,033;  319,025;  319,306;  320,925
353,113;  336,725;  332,135;  336,575
353,193;  326,625;  328,046;  329,935
353,272;  339,125;  333,135;  334,365
353,352;  308,125;  307,035;  311,285
353,432;  339,425;  343,005;  347,495
353,511;  336,125;  326,185;  330,665
353,591;  359,325;  361,616;  362,555
353,671;  333,625;  331,926;  333,015
353,750;  336,225;  332,296;  331,275
353,830;  315,925;  313,646;  317,015
353,909;  350,125;  339,836;  343,655
353,989;  322,925;  317,385;  320,255
354,069;  323,925;  319,456;  319,155
354,148;  330,925;  335,035;  339,585
354,228;  314,325;  315,695;  316,905
354,307;  341,625;  329,405;  332,345
354,387;  326,125;  322,095;  322,965
354,466;  314,825;  311,635;  316,045
354,546;  338,725;  335,135;  337,645
354,625;  328,025;  319,815;  320,355
354,705;  323,725;  324,246;  326,865
354,784;  321,025;  316,445;  318,195
354,864;  315,925;  316,635;  317,385
354,943;  332,925;  333,695;  339,105
355,023;  307,225;  310,996;  312,285
355,102;  360,725;  362,866;  363,435
355,181;  326,525;  315,966;  318,045
355,261;  339,525;  338,056;  342,165
355,340;  307,325;  303,845;  307,115
355,420;  352,725;  340,105;  342,305
355,499;  325,425;  322,975;  325,635
355,578;  320,525;  315,276;  316,885
355,658;  334,025;  332,875;  333,745
355,737;  321,425;  317,576;  319,005
355,816;  318,325;  323,276;  324,605
355,896;  320,925;  316,026;  321,355
355,975;  306,725;  307,355;  310,055
356,054;  310,825;  311,935;  312,455
356,133;  296,525;  290,565;  293,305
356,213;  327,225;  324,845;  324,825
356,292;  297,225;  304,016;  309,325
356,371;  315,025;  314,146;  314,035
356,451;  327,425;  324,755;  327,685
356,530;  343,825;  349,496;  350,795
356,609;  319,625;  311,146;  315,535
356,688;  326,925;  316,475;  316,165
356,767;  307,125;  304,695;  309,855
356,846;  324,125;  327,035;  327,235
356,926;  346,325;  340,016;  343,965
357,005;  322,825;  318,345;  318,565
357,084;  321,925;  304,466;  308,385
357,163;  321,925;  317,706;  317,185
357,242;  322,425;  320,146;  319,515
357,321;  313,925;  314,496;  316,575
357,400;  323,425;  321,236;  318,865
357,479;  323,925;  317,725;  320,795
357,559;  330,525;  321,405;  325,705
357,638;  302,625;  300,616;  298,815
357,717;  306,025;  313,746;  311,555
357,796;  324,025;  329,266;  330,875
357,875;  310,325;  314,466;  313,455
357,954;  306,425;  310,155;  313,855
358,033;  318,325;  323,405;  320,935
358,112;  323,825;  329,966;  328,315
358,191;  326,525;  315,276;  318,965
358,270;  291,125;  295,505;  297,695
358,349;  324,725;  321,625;  323,725
358,428;  324,425;  322,445;  326,125
358,507;  326,225;  321,366;  325,105
358,585;  328,425;  320,355;  325,525
358,664;  328,725;  332,266;  334,505
358,743;  306,625;  323,776;  326,515
358,822;  334,125;  334,475;  338,195
358,901;  317,125;  309,176;  309,505
358,980;  320,125;  310,885;  313,735
359,059;  328,925;  328,616;  332,255
359,138;  330,025;  329,415;  328,565
359,216;  333,425;  322,225;  327,485
359,295;  302,525;  309,475;  309,515
359,374;  342,125;  330,026;  333,455
359,453;  314,025;  316,345;  320,885
359,532;  312,625;  304,526;  308,455
359,610;  321,625;  319,556;  323,285
359,689;  337,525;  331,116;  333,025
359,768;  314,025;  313,706;  315,305
359,847;  309,225;  302,065;  305,385
359,925;  307,625;  304,105;  307,215
360,004;  304,325;  299,565;  302,585
360,083;  316,625;  320,165;  321,795
360,161;  305,025;  305,676;  309,885
360,240;  289,225;  288,725;  291,455
360,319;  313,225;  318,276;  317,225
360,397;  323,825;  324,986;  331,265
360,476;  318,925;  318,296;  324,355
360,555;  348,625;  345,565;  346,835
360,633;  308,925;  304,456;  304,945
360,712;  316,425;  309,056;  311,825
360,790;  334,725;  330,065;  331,185
360,869;  319,825;  310,266;  313,085
360,948;  330,025;  322,466;  322,235
361,026;  300,125;  300,065;  301,245
361,105;  316,425;  306,116;  309,875
361,183;  325,125;  324,725;  326,345
361,262;  302,825;  302,375;  307,465
361,340;  310,825;  305,815;  306,875
361,419;  299,625;  289,896;  290,845
361,497;  345,325;  340,926;  346,955
361,576;  322,525;  317,736;  323,245
361,654;  344,625;  342,736;  343,615
361,733;  305,025;  297,366;  297,305
361,811;  335,325;  329,065;  331,875
361,890;  294,525;  292,595;  293,595
361,968;  317,825;  313,706;  316,715
362,046;  332,725;  335,296;  335,795
362,125;  350,125;  337,435;  340,865
362,203;  318,425;  314,635;  316,745
362,282;  335,325;  328,676;  334,675
362,360;  323,025;  318,315;  323,125
362,438;  323,025;  313,565;  317,495
362,517;  361,625;  357,725;  357,035
362,595;  339,625;  340,956;  345,025
362,673;  337,325;  334,576;  338,035
362,752;  327,125;  326,366;  329,445
362,830;  334,925;  343,155;  338,795
362,908;  325,225;  322,885;  326,315
362,986;  337,025;  333,595;  334,645
363,065;  334,725;  326,405;  330,985
363,143;  360,225;  359,875;  363,525
363,221;  322,225;  313,755;  319,675
363,299;  314,425;  315,845;  315,595
363,378;  332,525;  327,546;  328,495
363,456;  296,625;  304,326;  305,295
363,534;  327,125;  323,996;  327,895
363,612;  339,625;  327,546;  330,285
363,690;  343,125;  337,885;  341,915
363,769;  353,925;  349,336;  354,965
363,847;  335,725;  332,326;  333,935
363,925;  316,925;  303,095;  306,775
364,003;  356,125;  350,866;  351,845
364,081;  351,625;  336,345;  339,765
364,159;  345,925;  331,836;  334,695
364,237;  344,425;  341,276;  343,025
364,315;  331,325;  318,866;  320,765
364,393;  362,425;  350,935;  355,465
364,471;  343,025;  328,185;  329,975
364,549;  361,825;  333,026;  334,495
364,627;  353,425;  323,095;  327,065
364,705;  362,425;  311,135;  310,945
364,783;  437,325;  323,496;  332,235
364,861;  970,125;  331,396;  334,915
364,939; 3539,925;  314,086;  319,855
365,017;  800,625;  306,046;  310,735
365,095;  367,225;  322,116;  324,495
365,173;  377,525;  345,556;  349,605
365,251;  386,625;  341,535;  344,665
365,329;  523,625;  346,466;  345,195
365,407; 1143,225;  318,345;  321,385
365,485;  474,725;  344,826;  348,395
365,563;  356,225;  344,306;  346,815
365,641;  332,725;  331,896;  331,005
365,719;  346,525;  337,095;  336,965
365,796;  344,825;  334,926;  336,075
365,874;  355,925;  347,426;  349,165
365,952;  315,225;  309,516;  312,925
366,030;  347,825;  334,866;  333,525
366,108;  361,025;  326,345;  328,575
366,185;  601,325;  338,396;  343,695
366,263;  867,825;  334,646;  340,035
366,341;  385,125;  334,125;  339,925
366,419;  346,325;  331,535;  331,355
366,496;  359,025;  342,655;  345,225
366,574;  326,825;  325,826;  329,315
366,652;  358,225;  345,296;  349,635
366,730;  380,025;  365,475;  368,065
366,807;  337,225;  330,845;  334,945
366,885;  326,725;  321,135;  327,175
366,963;  330,125;  329,016;  331,635
367,040;  351,725;  345,815;  352,465
367,118;  329,825;  321,875;  325,205
367,196;  345,425;  341,896;  344,715
367,273;  342,525;  335,845;  338,245
367,351;  336,225;  328,155;  331,125
367,428;  361,925;  355,016;  356,915
367,506;  338,125;  329,225;  333,905
367,584;  368,925;  360,216;  363,085
367,661;  341,025;  341,785;  346,585
367,739;  336,925;  328,466;  334,835
367,816;  334,825;  320,345;  324,175
367,894;  352,025;  339,146;  345,755
367,971;  330,925;  329,885;  333,335
368,049;  352,825;  349,586;  353,435
368,126;  316,725;  314,625;  317,265
368,204;  358,525;  351,836;  352,775
368,281;  360,225;  353,225;  355,775
368,359;  354,825;  348,806;  354,965
368,436;  352,125;  342,385;  348,785
368,514;  359,525;  349,646;  351,035
368,591;  351,025;  343,486;  348,405
368,668;  359,825;  347,486;  351,455
368,746;  362,425;  358,556;  362,125
368,823;  338,225;  342,405;  345,515
368,901;  349,425;  339,046;  341,025
368,978;  367,325;  354,975;  361,925
369,055;  344,925;  343,826;  347,145
369,133;  370,025;  367,046;  368,725
369,210;  345,325;  339,206;  342,185
369,287;  372,625;  367,986;  371,205
369,365;  369,025;  368,896;  369,715
369,442;  355,525;  346,826;  351,135
369,519;  311,625;  306,396;  310,475
369,596;  377,725;  369,005;  372,695
369,674;  335,525;  336,526;  336,705
369,751;  368,325;  368,005;  369,405
369,828;  352,225;  350,366;  351,255
369,905;  350,125;  354,796;  358,705
369,983;  335,525;  329,826;  336,485
370,060;  343,425;  335,185;  336,165
370,137;  384,125;  371,595;  373,975
370,214;  332,225;  340,246;  340,845
370,291;  364,325;  347,845;  351,965
370,368;  349,825;  345,426;  349,675
370,446;  335,825;  335,716;  337,375
370,523;  335,525;  331,586;  338,615
370,600;  356,725;  350,706;  356,355
370,677;  353,225;  345,826;  349,525
370,754;  344,425;  341,706;  344,655
370,831;  349,325;  344,885;  347,665
370,908;  370,925;  368,556;  369,945
370,985;  329,225;  326,206;  327,885
371,062;  352,525;  346,635;  347,955
371,139;  372,725;  362,125;  364,815
371,216;  363,125;  357,496;  359,475
371,293;  357,425;  350,576;  350,305
371,370;  327,125;  328,806;  332,395
371,447;  359,225;  354,736;  355,835
371,524;  390,625;  374,685;  378,505
371,601;  379,525;  371,556;  374,285
371,678;  376,525;  374,306;  375,345
371,755;  357,125;  348,526;  348,275
371,832;  375,125;  374,526;  377,175
371,909;  347,225;  342,065;  344,605
371,986;  377,625;  376,505;  379,065
372,063;  345,425;  346,195;  348,745
372,140;  362,525;  354,056;  357,495
372,216;  370,725;  360,225;  360,935
372,293;  346,825;  341,945;  344,805
372,370;  376,325;  370,236;  372,635
372,447;  359,425;  361,646;  361,385
372,524;  352,525;  349,725;  352,115
372,601;  361,625;  353,236;  356,005
372,677;  338,525;  339,586;  339,035
372,754;  354,725;  347,516;  350,955
372,831;  353,725;  354,716;  356,955
372,908;  366,825;  368,496;  364,795
372,984;  347,825;  349,246;  356,035
373,061;  341,725;  342,046;  342,845
373,138;  348,625;  349,986;  354,465
373,215;  351,525;  345,155;  346,585
373,291;  354,925;  347,556;  353,415
373,368;  359,625;  353,516;  357,375
373,445;  349,625;  348,285;  348,395
373,521;  355,125;  349,216;  353,935
373,598;  335,825;  341,766;  343,845
373,675;  335,225;  332,646;  334,115
373,751;  355,425;  345,375;  354,195
373,828;  343,425;  341,076;  346,375
373,904;  393,625;  387,225;  391,935
373,981;  339,725;  332,516;  333,585
374,057;  352,925;  353,306;  355,945
374,134;  332,425;  331,706;  334,435
374,211;  352,825;  348,826;  351,835
374,287;  341,025;  338,565;  339,035
374,364;  358,225;  362,426;  365,335
374,440;  317,725;  319,035;  321,205
374,517;  363,225;  361,625;  366,995
374,593;  323,625;  326,896;  326,865
374,670;  344,225;  340,095;  342,905
374,746;  345,125;  346,915;  349,135
374,823;  371,125;  369,255;  368,775
374,899;  373,025;  366,836;  366,475
374,975;  341,125;  336,035;  341,495
375,052;  334,725;  319,776;  326,175
375,128;  334,425;  325,956;  331,675
375,205;  359,925;  353,665;  355,605
375,281;  344,125;  337,296;  336,395
375,357;  371,725;  361,026;  364,245
375,434;  348,025;  331,986;  338,045
375,510;  351,525;  347,755;  353,175
375,586;  359,325;  347,486;  349,845
375,663;  329,825;  321,926;  323,515
375,739;  356,225;  355,716;  358,675
375,815;  358,925;  346,366;  346,765
375,892;  353,425;  344,516;  348,555
375,968;  348,425;  331,605;  336,855
376,044;  341,925;  335,866;  339,405
376,120;  340,025;  332,535;  339,615
376,197;  353,725;  348,466;  352,185
376,273;  347,125;  340,516;  341,095
376,349;  385,225;  378,366;  379,125
376,425;  363,825;  362,935;  364,425
376,501;  353,225;  344,225;  347,555
376,578;  355,525;  362,885;  363,255
376,654;  381,325;  383,866;  382,945
376,730;  360,925;  360,266;  364,005
376,806;  380,125;  375,185;  376,845
376,882;  380,925;  377,176;  378,355
376,958;  381,325;  376,706;  373,325
377,034;  324,825;  319,695;  317,895
377,111;  373,225;  368,826;  369,285
377,187;  398,925;  390,845;  391,825
377,263;  384,725;  383,885;  384,725
377,339;  343,525;  341,445;  346,375
377,415;  371,425;  366,366;  365,685
377,491;  352,325;  342,885;  347,505
377,567;  366,525;  359,755;  360,685
377,643;  391,525;  380,076;  378,785
377,719;  379,125;  363,706;  367,845
377,795;  347,925;  345,725;  349,165
377,871;  363,225;  367,866;  370,355
377,947;  350,325;  348,236;  351,215
378,023;  348,725;  345,855;  349,075
378,099;  353,825;  349,035;  350,465
378,174;  380,825;  374,176;  374,825
378,250;  360,825;  363,105;  366,955
378,326;  374,025;  366,255;  370,045
378,402;  355,825;  357,685;  360,315
378,478;  370,525;  361,605;  365,295
378,554;  380,925;  370,396;  375,075
378,630;  368,925;  365,225;  365,285
378,706;  359,225;  358,076;  357,335
378,781;  397,225;  390,875;  394,875
378,857;  365,525;  363,185;  366,505
378,933;  354,825;  360,315;  365,855
379,009;  348,825;  351,426;  351,035
379,085;  393,825;  393,826;  391,725
379,160;  385,925;  377,246;  378,485
379,236;  382,925;  374,195;  376,655
379,312;  361,825;  359,915;  361,725
379,387;  359,525;  354,486;  355,105
379,463;  369,925;  359,836;  363,685
379,539;  373,025;  370,475;  373,395
379,615;  364,325;  359,056;  358,495
379,690;  410,925;  395,035;  398,755
379,766;  374,725;  373,276;  379,335
379,842;  395,225;  391,105;  391,375
379,917;  392,425;  380,935;  388,225
379,993;  370,525;  368,366;  373,385
380,068;  367,125;  359,236;  361,755
380,144;  382,225;  381,086;  383,405
380,220;  386,425;  382,086;  386,535
380,295;  359,225;  353,005;  355,035
380,371;  358,425;  359,935;  361,545
380,446;  379,625;  377,165;  381,125
380,522;  341,525;  348,766;  349,425
380,597;  372,925;  360,486;  359,965
380,673;  396,125;  390,456;  394,425
380,748;  348,225;  358,046;  358,445
380,824;  375,625;  367,676;  369,935
380,899;  395,225;  386,216;  388,425
380,975;  371,125;  365,475;  366,905
381,050;  354,525;  352,806;  352,825
381,126;  382,325;  370,526;  373,695
381,201;  402,325;  398,806;  402,495
381,277;  376,725;  373,435;  374,795
381,352;  392,525;  388,105;  390,855
381,427;  366,625;  372,586;  376,025
381,503;  376,625;  378,896;  379,385
381,578;  363,025;  360,605;  365,515
381,653;  368,125;  368,776;  372,375
381,729;  356,425;  361,535;  360,945
381,804;  373,925;  367,475;  368,805
381,879;  381,625;  383,306;  386,055
381,955;  369,225;  354,396;  356,545
382,030;  362,925;  356,556;  357,225
382,105;  376,925;  375,586;  372,555
382,181;  374,625;  367,466;  371,255
382,256;  379,425;  378,116;  374,765
382,331;  368,625;  367,216;  371,745
382,406;  353,025;  353,266;  357,745
382,482;  359,425;  361,315;  357,655
382,557;  363,625;  363,526;  366,745
382,632;  380,025;  370,595;  371,585
382,707;  367,025;  361,135;  365,615
382,782;  374,625;  361,516;  366,275
382,857;  357,525;  358,996;  361,035
382,933;  366,725;  351,776;  352,995
383,008;  349,925;  344,065;  345,165
383,083;  382,225;  376,866;  379,215
383,158;  377,025;  378,866;  381,615
383,233;  362,225;  362,385;  363,105
383,308;  359,825;  359,875;  362,675
383,383;  382,525;  389,445;  391,785
383,458;  369,425;  361,135;  360,475
383,533;  344,425;  342,456;  344,625
383,608;  385,125;  387,885;  390,385
383,683;  393,925;  385,046;  389,585
383,758;  381,825;  380,285;  380,925
383,833;  375,125;  370,296;  371,015
383,908;  347,025;  343,206;  342,165
383,983;  347,225;  346,296;  350,755
384,058;  356,125;  355,246;  357,655
384,133;  366,325;  368,185;  368,575
384,208;  379,525;  376,796;  379,565
384,283;  357,325;  348,736;  351,825
384,358;  384,925;  381,845;  387,485
384,433;  354,325;  357,496;  357,355
384,508;  372,025;  368,966;  373,895
384,583;  373,625;  373,725;  375,265
384,658;  364,425;  367,915;  371,275
384,732;  330,425;  339,456;  339,705
384,807;  368,425;  366,935;  369,005
384,882;  376,225;  371,246;  373,145
384,957;  374,525;  368,095;  371,985
385,032;  382,225;  375,426;  376,555
385,106;  376,125;  370,216;  371,515
385,181;  357,325;  351,385;  357,155
385,256;  362,325;  363,565;  366,745
385,331;  374,025;  371,935;  373,255
385,405;  383,125;  380,975;  381,445
385,480;  372,525;  365,695;  366,715
385,555;  401,825;  399,306;  400,405
385,630;  389,525;  390,956;  395,935
385,704;  389,325;  374,056;  377,105
385,779;  367,625;  364,405;  364,855
385,854;  375,025;  368,746;  369,975
385,928;  361,725;  363,016;  365,315
386,003;  402,325;  402,586;  405,115
386,078;  374,525;  372,466;  374,995
386,152;  401,425;  401,456;  401,815
386,227;  357,825;  357,646;  361,225
386,301;  375,225;  378,725;  380,385
386,376;  354,325;  348,695;  355,015
386,450;  384,325;  378,616;  381,145
386,525;  376,525;  373,556;  377,655
386,600;  393,425;  385,746;  385,925
386,674;  369,325;  364,076;  367,315
386,749;  381,825;  375,095;  381,315
386,823;  387,925;  377,435;  382,095
386,898;  373,425;  379,766;  380,535
386,972;  390,425;  380,966;  385,985
387,047;  381,325;  369,776;  374,355
387,121;  385,925;  379,695;  380,335
387,195;  364,725;  357,875;  359,895
387,270;  389,725;  385,625;  385,415
387,344;  399,125;  404,405;  407,055
387,419;  395,725;  385,665;  393,195
387,493;  384,625;  377,776;  379,825
387,567;  366,525;  355,005;  358,475
387,642;  405,825;  403,586;  405,945
387,716;  376,425;  369,565;  372,245
387,790;  376,225;  367,706;  371,225
387,865;  367,825;  372,806;  373,715
387,939;  405,025;  403,005;  404,415
388,013;  395,025;  384,806;  386,145
388,088;  373,225;  368,655;  370,085
388,162;  373,425;  370,135;  371,835
388,236;  364,225;  372,456;  375,275
388,310;  361,525;  361,966;  364,475
388,385;  401,825;  397,185;  400,845
388,459;  376,025;  379,996;  380,235
388,533;  358,225;  363,676;  362,565
388,607;  375,925;  366,776;  365,955
388,682;  380,525;  374,806;  375,745
388,756;  363,425;  355,035;  360,825
388,830;  396,025;  390,255;  394,075
388,904;  387,525;  378,276;  385,365
388,978;  367,125;  369,535;  370,165
389,052;  378,125;  375,396;  377,225
389,126;  378,825;  370,435;  376,195
389,200;  384,125;  372,665;  377,205
389,275;  377,625;  369,266;  367,695
389,349;  383,925;  374,695;  373,065
389,423;  365,825;  369,565;  369,375
389,497;  373,525;  380,966;  383,775
389,571;  370,925;  368,665;  370,175
389,645;  379,325;  376,806;  379,805
389,719;  374,325;  369,396;  372,955
389,793;  348,725;  346,576;  348,725
389,867;  404,925;  398,035;  402,955
389,941;  384,825;  375,375;  377,215
390,015;  367,925;  361,135;  364,515
390,089;  368,325;  360,426;  362,085
390,163;  378,025;  372,456;  375,935
390,237;  384,825;  375,435;  379,295
390,310;  388,225;  379,276;  382,155
390,384;  381,725;  376,546;  383,625
390,458;  405,025;  400,826;  403,825
390,532;  391,525;  383,496;  386,725
390,606;  370,625;  365,945;  369,265
390,680;  376,625;  366,466;  368,115
390,754;  373,825;  366,385;  368,915
390,827;  403,525;  388,276;  392,645
390,901;  405,025;  391,855;  396,215
390,975;  380,825;  368,905;  370,295
391,049;  365,425;  366,366;  364,315
391,123;  367,425;  362,685;  363,545
391,196;  369,525;  367,635;  367,855
391,270;  383,825;  378,426;  377,835
391,344;  360,925;  360,056;  359,585
391,418;  378,925;  372,975;  372,155
391,491;  368,125;  362,655;  363,995
391,565;  365,425;  362,065;  366,105
391,639;  393,325;  394,345;  397,875
391,712;  384,725;  385,815;  384,375
391,786;  385,525;  382,646;  386,785
391,860;  369,025;  369,385;  370,925
391,933;  384,625;  369,935;  371,115
392,007;  383,625;  371,355;  380,875
392,081;  405,725;  396,456;  399,955
392,154;  383,025;  377,845;  383,895
392,228;  395,825;  391,366;  394,685
392,301;  385,925;  376,266;  381,275
392,375;  387,425;  386,076;  389,995
392,448;  388,025;  379,516;  384,445
392,522;  383,125;  376,236;  379,965
392,595;  375,925;  370,105;  374,245
392,669;  386,425;  376,116;  379,675
392,742;  393,125;  390,975;  396,915
392,816;  401,225;  397,296;  400,205
392,889;  395,325;  392,746;  396,605
392,963;  410,425;  409,095;  409,745
393,036;  395,725;  385,345;  386,785
393,110;  403,625;  391,155;  393,885
393,183;  408,425;  400,836;  405,685
393,257;  420,925;  415,456;  417,745
393,330;  373,925;  365,845;  369,745
393,403;  395,025;  390,486;  395,585
393,477;  363,025;  355,845;  358,875
393,550;  399,025;  390,306;  395,545
393,623;  384,425;  388,396;  388,295
393,697;  404,625;  406,056;  406,835
393,770;  377,725;  376,556;  379,065
393,843;  405,325;  402,996;  406,915
393,917;  403,925;  394,216;  398,485
393,990;  412,125;  409,996;  410,125
394,063;  400,725;  386,855;  392,225
394,136;  389,925;  388,635;  391,675
394,210;  393,225;  393,336;  395,655
394,283;  402,325;  402,785;  407,175
394,356;  401,925;  399,165;  399,175
394,429;  410,425;  396,935;  398,825
394,502;  392,425;  382,016;  383,895
394,576;  420,625;  414,125;  414,715
394,649;  383,025;  378,776;  377,865
394,722;  406,425;  400,896;  403,785
394,795;  417,125;  408,306;  413,185
394,868;  390,725;  384,135;  385,985
394,941;  380,225;  376,435;  375,265
395,014;  426,325;  417,056;  420,205
395,088;  404,625;  398,956;  399,175
395,161;  400,225;  395,466;  398,685
395,234;  403,725;  409,236;  410,735
395,307;  404,525;  402,236;  405,525
395,380;  393,025;  384,736;  385,325
395,453;  434,625;  436,845;  437,285
395,526;  418,025;  408,385;  412,495
395,599;  437,725;  426,926;  430,645
395,672;  398,325;  394,586;  394,895
395,745;  420,525;  417,125;  421,075
395,818;  378,425;  376,306;  378,615
395,891;  394,525;  385,635;  387,695
395,964;  413,525;  415,896;  414,885
396,036;  385,525;  387,486;  384,175
396,109;  402,425;  392,076;  395,785
396,182;  398,025;  396,766;  399,545
396,255;  403,725;  399,225;  398,845
396,328;  409,925;  410,065;  411,075
396,401;  366,225;  370,746;  371,295
396,474;  385,225;  381,086;  381,505
396,547;  399,125;  397,046;  400,645
396,619;  390,525;  390,755;  390,525
396,692;  407,025;  404,866;  411,355
396,765;  379,525;  370,616;  372,985
396,838;  386,325;  388,225;  388,295
396,911;  387,225;  371,266;  373,155
396,983;  388,125;  392,496;  392,385
397,056;  373,825;  372,355;  374,095
397,129;  389,025;  387,796;  389,615
397,201;  393,625;  391,556;  389,605
397,274;  391,825;  385,366;  389,335
397,347;  370,025;  363,345;  363,665
397,420;  390,825;  384,605;  387,195
397,492;  387,725;  388,296;  388,685
397,565;  382,925;  375,915;  379,595
397,637;  367,825;  369,366;  372,085
397,710;  353,425;  351,586;  350,295
397,783;  420,225;  412,855;  414,805
397,855;  349,725;  345,345;  347,055
397,928;  365,625;  368,336;  371,095
398,000;  403,725;  395,866;  396,635
398,073;  383,025;  386,546;  384,745
398,146;  384,925;  376,706;  377,295
398,218;  398,625;  390,255;  393,135
398,291;  392,525;  385,806;  387,915
398,363;  376,925;  381,755;  384,505
398,436;  375,925;  369,855;  374,675
398,508;  381,525;  383,266;  385,345
398,581;  383,325;  378,206;  380,565
398,653;  387,025;  374,255;  373,825
398,726;  381,925;  378,535;  383,385
398,798;  382,625;  383,306;  387,885
398,870;  403,525;  391,116;  396,905
398,943;  372,125;  366,236;  369,775
399,015;  376,925;  365,676;  368,815
399,088;  395,425;  389,655;  388,435
399,160;  377,025;  368,076;  368,815
399,232;  351,725;  350,405;  352,095
399,305;  371,025;  368,435;  372,935
399,377;  377,225;  377,905;  377,535
399,449;  396,825;  386,246;  388,735
399,522;  431,125;  421,875;  424,965
399,594;  371,425;  364,576;  365,315
399,666;  391,225;  382,625;  385,235
399,738;  381,625;  373,336;  375,225
399,811;  376,625;  376,736;  377,025
399,883;  387,625;  386,105;  388,295
399,955;  390,525;  389,855;  389,195
400,027;  355,625;  345,945;  349,545
400,100;  400,925;  407,366;  409,275
400,172;  344,725;  348,296;  349,645
400,244;  370,825;  378,225;  381,195
400,316;  404,525;  393,016;  393,505
400,388;  388,825;  389,385;  393,005
400,460;  369,025;  359,306;  364,605
400,532;  358,125;  350,826;  351,835
400,605;  379,225;  377,736;  384,975
400,677;  405,025;  402,285;  404,675
400,749;  401,625;  395,685;  398,125
400,821;  387,725;  385,956;  388,105
400,893;  381,325;  379,445;  382,305
400,965;  402,325;  386,755;  392,785
401,037;  394,825;  387,565;  392,525
401,109;  373,825;  370,725;  373,835
401,181;  386,725;  380,716;  385,485

