pru
Integration time [ms]:   0,150
Averaging Nr. [scans]: 100
Smoothing Nr. [pixels]: 0
Data measured with spectrometer [name]: 7416147SP
Wave   ;Sample   ;Dark     ;Reference
[nm]   ;[counts] ;[counts] ;[counts] 

230,218;  295,622;  290,315;  293,845
230,311;  320,992;  319,885;  318,565
230,404;  315,322;  309,855;  312,875
230,497;  321,552;  317,385;  315,715
230,591;  337,482;  333,426;  335,355
230,684;  328,172;  326,486;  329,355
230,777;  315,482;  311,736;  314,765
230,870;  313,852;  313,326;  316,955
230,964;  310,992;  310,885;  314,745
231,057;  341,322;  342,496;  343,475
231,150;  334,812;  331,695;  332,715
231,243;  332,712;  330,635;  332,775
231,336;  333,922;  331,375;  331,335
231,430;  319,482;  316,496;  317,715
231,523;  328,182;  324,516;  326,785
231,616;  309,792;  305,445;  309,685
231,709;  348,942;  328,065;  330,025
231,802;  318,462;  300,945;  301,885
231,895;  317,072;  299,836;  300,315
231,988;  330,232;  315,655;  318,535
232,082;  313,992;  298,155;  302,425
232,175;  317,312;  302,155;  306,175
232,268;  317,742;  301,266;  305,345
232,361;  320,542;  304,806;  307,515
232,454;  338,982;  322,396;  323,025
232,547;  337,232;  318,716;  322,655
232,640;  311,252;  296,766;  294,035
232,733;  332,872;  314,116;  323,045
232,826;  309,572;  288,915;  295,035
232,919;  329,372;  313,826;  312,665
233,012;  305,802;  293,646;  292,775
233,105;  315,502;  294,766;  298,815
233,199;  317,202;  299,875;  304,045
233,292;  307,922;  293,475;  296,235
233,385;  279,042;  263,426;  262,225
233,478;  310,292;  293,885;  295,685
233,571;  341,752;  324,586;  327,675
233,664;  321,572;  305,996;  308,435
233,757;  298,482;  280,796;  281,395
233,850;  297,922;  282,255;  285,825
233,943;  309,402;  290,896;  292,195
234,035;  319,692;  300,576;  302,355
234,128;  297,692;  281,836;  283,945
234,221;  315,022;  297,665;  298,245
234,314;  328,872;  304,915;  311,975
234,407;  325,832;  302,935;  309,075
234,500;  295,012;  277,625;  281,875
234,593;  301,692;  287,095;  285,735
234,686;  309,272;  293,746;  293,765
234,779;  308,772;  291,266;  293,165
234,872;  302,722;  281,806;  281,565
234,965;  302,702;  292,806;  290,795
235,058;  294,192;  274,155;  276,215
235,150;  312,652;  285,776;  290,805
235,243;  299,192;  282,736;  284,425
235,336;  319,342;  300,695;  304,545
235,429;  290,102;  273,646;  272,515
235,522;  347,432;  330,996;  335,445
235,615;  280,992;  262,276;  265,145
235,707;  296,692;  282,415;  282,335
235,800;  303,952;  289,815;  290,515
235,893;  303,612;  289,956;  292,955
235,986;  310,272;  298,266;  299,325
236,079;  298,912;  286,586;  291,125
236,171;  287,032;  270,725;  271,865
236,264;  329,062;  312,635;  313,275
236,357;  310,742;  290,986;  293,865
236,450;  327,502;  315,225;  317,215
236,542;  286,452;  267,065;  272,575
236,635;  329,262;  313,546;  316,385
236,728;  300,522;  285,516;  288,115
236,821;  295,582;  280,165;  283,715
236,913;  290,712;  277,896;  276,315
237,006;  286,412;  271,605;  275,435
237,099;  299,142;  283,896;  285,575
237,191;  315,552;  298,796;  300,225
237,284;  287,992;  267,896;  272,995
237,377;  309,872;  294,725;  297,495
237,470;  304,552;  285,415;  287,875
237,562;  292,502;  276,866;  275,785
237,655;  338,752;  320,945;  324,565
237,747;  315,152;  292,695;  295,845
237,840;  329,842;  313,086;  314,435
237,933;  313,942;  300,445;  301,555
238,025;  317,002;  301,415;  301,595
238,118;  302,162;  282,456;  287,755
238,211;  287,722;  268,155;  272,375
238,303;  288,372;  272,296;  273,415
238,396;  282,652;  268,065;  271,945
238,488;  307,632;  292,625;  291,075
238,581;  301,792;  287,855;  289,445
238,673;  302,502;  285,766;  286,865
238,766;  300,522;  282,635;  283,185
238,859;  290,452;  273,586;  276,105
238,951;  296,972;  281,095;  282,835
239,044;  294,552;  276,496;  279,525
239,136;  290,202;  269,035;  271,705
239,229;  298,842;  280,665;  283,435
239,321;  288,362;  271,255;  276,105
239,414;  307,032;  289,875;  292,345
239,506;  301,482;  284,625;  290,655
239,599;  332,952;  316,315;  315,935
239,691;  303,242;  287,945;  287,755
239,784;  320,482;  301,926;  304,175
239,876;  311,742;  295,005;  294,715
239,969;  304,752;  284,426;  288,635
240,061;  290,092;  269,505;  272,655
240,153;  293,882;  276,776;  278,405
240,246;  303,762;  287,635;  287,925
240,338;  330,572;  315,285;  314,405
240,431;  285,312;  268,896;  270,455
240,523;  288,172;  269,315;  270,665
240,615;  316,422;  299,086;  301,495
240,708;  324,372;  309,945;  312,145
240,800;  304,372;  286,956;  289,175
240,893;  291,042;  272,216;  274,965
240,985;  306,292;  286,116;  289,995
241,077;  285,152;  269,866;  271,905
241,170;  320,432;  300,355;  300,805
241,262;  309,652;  293,695;  290,825
241,354;  272,192;  252,305;  253,985
241,447;  299,292;  281,326;  283,905
241,539;  286,982;  266,746;  270,745
241,631;  333,092;  314,366;  317,275
241,724;  280,352;  259,135;  260,655
241,816;  298,562;  279,385;  281,545
241,908;  296,312;  275,056;  280,445
242,000;  296,152;  277,625;  279,505
242,093;  296,692;  277,725;  280,745
242,185;  295,822;  277,736;  277,535
242,277;  289,292;  274,695;  277,115
242,369;  303,122;  282,146;  286,335
242,462;  293,052;  274,405;  274,215
242,554;  294,312;  277,146;  281,105
242,646;  301,872;  283,146;  286,575
242,738;  323,082;  303,255;  307,195
242,830;  279,702;  259,026;  260,415
242,923;  314,602;  297,035;  299,015
243,015;  284,342;  268,655;  266,675
243,107;  287,422;  267,676;  271,255
243,199;  295,672;  276,345;  278,365
243,291;  292,942;  272,125;  276,215
243,383;  272,142;  254,826;  256,465
243,476;  285,442;  269,435;  268,005
243,568;  298,332;  280,915;  284,885
243,660;  291,982;  273,385;  279,575
243,752;  298,802;  279,796;  287,275
243,844;  317,302;  300,766;  302,705
243,936;  306,342;  291,956;  293,555
244,028;  317,962;  304,796;  307,475
244,120;  268,592;  254,346;  255,525
244,212;  308,852;  293,826;  293,755
244,305;  280,542;  268,496;  267,935
244,397;  304,772;  289,165;  291,675
244,489;  321,112;  304,276;  307,925
244,581;  316,322;  299,255;  300,795
244,673;  298,872;  281,806;  283,225
244,765;  303,472;  286,035;  290,565
244,857;  305,572;  284,986;  287,335
244,949;  302,752;  283,956;  284,945
245,041;  269,342;  250,865;  255,005
245,133;  311,122;  293,695;  296,625
245,225;  293,592;  277,915;  280,695
245,317;  303,622;  289,456;  289,025
245,409;  283,342;  263,755;  269,375
245,501;  304,792;  288,496;  293,045
245,593;  305,452;  286,255;  290,055
245,685;  300,222;  285,405;  288,735
245,776;  299,982;  285,945;  287,235
245,868;  284,332;  271,276;  272,565
245,960;  276,322;  265,875;  263,405
246,052;  321,162;  310,766;  310,445
246,144;  305,812;  294,165;  294,205
246,236;  296,192;  283,576;  283,565
246,328;  304,582;  291,345;  293,965
246,420;  296,542;  279,746;  280,855
246,512;  323,662;  308,236;  310,455
246,604;  299,282;  282,526;  286,825
246,695;  285,242;  273,345;  272,135
246,787;  312,242;  293,526;  301,145
246,879;  308,932;  292,716;  297,145
246,971;  312,362;  299,276;  300,965
247,063;  291,392;  273,255;  278,605
247,155;  312,772;  294,516;  297,195
247,246;  300,302;  283,266;  283,715
247,338;  305,142;  288,116;  294,265
247,430;  315,822;  299,945;  303,475
247,522;  315,782;  297,546;  300,555
247,613;  317,132;  296,586;  299,675
247,705;  309,842;  286,896;  288,445
247,797;  325,192;  305,776;  307,475
247,889;  320,562;  294,706;  295,475
247,980;  323,662;  285,676;  291,995
248,072;  332,802;  282,845;  285,895
248,164;  351,582;  293,216;  298,385
248,256;  304,452;  271,366;  274,105
248,347;  331,222;  309,785;  311,065
248,439;  299,572;  283,165;  282,675
248,531;  321,612;  303,885;  304,835
248,622;  319,922;  307,206;  308,325
248,714;  294,462;  276,945;  278,365
248,806;  309,302;  293,655;  298,015
248,897;  308,332;  291,535;  292,985
248,989;  282,282;  263,956;  263,855
249,081;  300,772;  283,355;  284,905
249,172;  311,142;  289,926;  295,135
249,264;  292,042;  272,076;  273,435
249,356;  287,512;  269,326;  273,745
249,447;  305,352;  282,176;  284,525
249,539;  299,462;  283,086;  284,645
249,630;  309,052;  289,875;  288,495
249,722;  334,022;  313,276;  315,395
249,813;  302,992;  280,496;  284,125
249,905;  312,932;  289,426;  293,665
249,997;  299,562;  281,445;  280,615
250,088;  302,472;  282,255;  288,985
250,180;  304,222;  283,695;  284,575
250,271;  304,412;  281,195;  280,335
250,363;  342,222;  319,105;  320,755
250,454;  296,532;  273,035;  275,615
250,546;  310,662;  285,926;  289,415
250,637;  286,962;  264,445;  261,845
250,729;  294,312;  266,505;  269,555
250,820;  313,452;  289,915;  292,965
250,912;  292,892;  262,355;  267,085
251,003;  310,022;  278,396;  280,475
251,095;  310,312;  282,086;  284,555
251,186;  300,392;  271,415;  274,775
251,277;  299,602;  271,986;  275,265
251,369;  302,002;  275,975;  275,105
251,460;  304,132;  271,456;  273,815
251,552;  314,222;  278,475;  279,655
251,643;  304,822;  268,796;  267,375
251,735;  308,892;  265,246;  267,375
251,826;  301,052;  258,016;  263,245
251,917;  328,542;  278,035;  279,115
252,009;  327,942;  273,396;  275,605
252,100;  335,422;  281,426;  283,345
252,191;  358,632;  289,996;  292,015
252,283;  348,712;  265,095;  267,705
252,374;  373,732;  278,296;  278,375
252,465;  396,032;  295,405;  298,605
252,557;  393,132;  283,576;  286,365
252,648;  393,902;  265,146;  268,635
252,739;  423,542;  280,516;  282,125
252,831;  424,332;  270,836;  280,355
252,922;  462,252;  282,296;  280,045
253,013;  509,732;  273,956;  284,285
253,104;  573,702;  270,076;  270,335
253,196;  681,362;  271,366;  271,175
253,287;  845,922;  281,836;  277,135
253,378; 1228,852;  276,276;  277,975
253,469; 3795,502;  272,385;  276,445
253,561;21600,342;  273,496;  278,855
253,652;42918,543;  282,266;  280,015
253,743; 6296,722;  276,216;  280,985
253,834;  627,972;  259,146;  265,875
253,926;  503,262;  262,605;  267,485
254,017;  482,112;  284,236;  290,235
254,108;  453,232;  291,836;  290,565
254,199;  435,692;  285,326;  291,185
254,290;  435,372;  312,725;  313,865
254,381;  416,192;  287,076;  291,155
254,472;  413,762;  291,935;  300,495
254,564;  416,902;  312,766;  307,565
254,655;  394,212;  304,755;  308,105
254,746;  353,552;  264,896;  264,025
254,837;  383,062;  293,105;  298,435
254,928;  357,652;  266,836;  271,975
255,019;  365,652;  283,505;  286,805
255,110;  372,952;  300,165;  301,665
255,201;  356,512;  281,155;  287,655
255,292;  382,132;  312,706;  316,275
255,383;  351,692;  275,785;  275,725
255,474;  344,462;  273,306;  273,095
255,566;  351,402;  283,926;  286,645
255,657;  346,332;  298,556;  302,445
255,748;  311,122;  271,415;  278,125
255,839;  323,232;  280,695;  282,485
255,930;  328,862;  287,866;  289,735
256,021;  337,172;  298,845;  298,115
256,112;  320,042;  278,456;  278,735
256,203;  346,892;  311,866;  313,365
256,294;  334,182;  293,496;  299,575
256,384;  313,262;  270,565;  275,715
256,475;  319,492;  290,996;  294,595
256,566;  310,272;  281,246;  287,825
256,657;  303,762;  278,945;  278,915
256,748;  305,112;  281,285;  284,675
256,839;  295,102;  274,426;  273,555
256,930;  301,622;  279,165;  283,055
257,021;  327,402;  304,155;  306,465
257,112;  326,392;  304,926;  309,235
257,203;  278,502;  258,445;  259,825
257,294;  277,082;  254,465;  262,175
257,385;  310,202;  288,526;  294,205
257,475;  298,832;  279,135;  278,545
257,566;  310,712;  287,586;  292,255
257,657;  291,042;  269,595;  270,025
257,748;  289,702;  275,935;  276,095
257,839;  302,132;  287,915;  286,025
257,930;  307,812;  285,736;  290,395
258,020;  284,112;  269,716;  271,535
258,111;  280,512;  262,225;  263,255
258,202;  304,952;  288,326;  289,935
258,293;  299,052;  284,655;  285,305
258,384;  323,442;  305,595;  307,665
258,474;  306,562;  288,676;  291,995
258,565;  285,212;  271,635;  273,435
258,656;  307,542;  292,966;  295,145
258,747;  287,162;  271,475;  275,425
258,837;  287,112;  274,246;  273,695
258,928;  294,542;  275,785;  278,605
259,019;  284,292;  268,415;  270,595
259,109;  284,072;  269,685;  269,425
259,200;  304,582;  286,105;  289,815
259,291;  284,362;  269,975;  271,655
259,381;  306,932;  293,026;  295,635
259,472;  307,852;  295,796;  296,545
259,563;  316,072;  303,065;  305,845
259,653;  288,682;  278,296;  281,385
259,744;  278,612;  268,826;  267,735
259,835;  311,922;  300,975;  302,815
259,925;  287,512;  271,505;  277,075
260,016;  301,932;  286,746;  287,585
260,107;  273,442;  258,035;  264,715
260,197;  293,122;  283,975;  286,325
260,288;  288,202;  274,565;  279,155
260,378;  280,432;  267,195;  271,275
260,469;  301,552;  285,915;  288,765
260,560;  280,042;  266,146;  269,495
260,650;  285,322;  271,736;  275,665
260,741;  288,602;  276,366;  279,035
260,831;  284,342;  272,855;  275,905
260,922;  277,322;  266,206;  269,545
261,012;  285,172;  277,665;  278,255
261,103;  313,562;  301,785;  302,875
261,193;  310,322;  302,086;  303,915
261,284;  283,052;  271,806;  273,005
261,374;  310,102;  296,385;  303,855
261,465;  298,092;  287,755;  289,435
261,555;  294,492;  282,255;  280,715
261,646;  302,392;  292,475;  294,375
261,736;  301,482;  287,435;  290,535
261,827;  294,712;  283,716;  284,935
261,917;  322,192;  311,736;  311,595
262,007;  295,782;  283,986;  288,075
262,098;  297,302;  289,445;  287,725
262,188;  337,752;  326,655;  333,475
262,279;  307,772;  300,185;  299,795
262,369;  297,872;  286,285;  289,225
262,459;  297,312;  288,246;  290,365
262,550;  309,902;  303,266;  301,565
262,640;  283,812;  273,005;  276,555
262,731;  302,472;  300,935;  299,335
262,821;  322,502;  310,535;  312,255
262,911;  306,462;  297,875;  298,285
263,002;  297,252;  289,625;  290,825
263,092;  311,942;  303,956;  306,295
263,182;  291,562;  284,806;  285,755
263,273;  292,122;  285,426;  289,395
263,363;  306,482;  300,746;  299,385
263,453;  274,852;  267,375;  268,605
263,543;  300,642;  289,815;  289,615
263,634;  273,032;  266,516;  266,365
263,724;  304,732;  292,586;  293,065
263,814;  315,522;  308,706;  308,885
263,904;  290,662;  281,966;  285,905
263,995;  328,462;  322,276;  322,325
264,085;  300,792;  295,855;  294,575
264,175;  303,402;  296,706;  296,385
264,265;  326,172;  321,105;  321,865
264,356;  281,272;  270,466;  274,385
264,446;  316,642;  308,996;  307,575
264,536;  302,672;  294,026;  297,515
264,626;  324,782;  318,486;  320,175
264,716;  307,962;  298,435;  303,275
264,806;  319,402;  308,776;  310,415
264,897;  265,812;  258,135;  258,615
264,987;  315,182;  303,535;  304,475
265,077;  315,142;  287,046;  292,545
265,167;  376,582;  310,216;  311,575
265,257;  334,932;  290,445;  290,535
265,347;  334,202;  294,336;  295,795
265,437;  323,952;  296,176;  300,635
265,527;  318,982;  293,155;  294,765
265,617;  290,012;  279,875;  285,145
265,708;  323,342;  314,216;  314,825
265,798;  314,582;  305,415;  307,055
265,888;  312,632;  300,716;  305,545
265,978;  301,292;  294,496;  295,825
266,068;  319,612;  310,155;  315,855
266,158;  298,382;  294,005;  297,205
266,248;  280,212;  274,016;  276,865
266,338;  318,342;  313,035;  314,815
266,428;  305,842;  300,635;  302,655
266,518;  319,502;  311,405;  315,615
266,608;  302,812;  299,725;  294,215
266,698;  281,882;  273,586;  276,245
266,788;  280,972;  274,456;  277,745
266,878;  332,052;  325,776;  330,865
266,968;  314,562;  306,725;  309,425
267,058;  304,882;  297,375;  302,895
267,147;  307,692;  301,845;  302,905
267,237;  299,452;  291,815;  295,765
267,327;  291,122;  286,755;  287,895
267,417;  310,152;  301,225;  303,385
267,507;  300,012;  292,176;  294,215
267,597;  291,092;  282,026;  283,655
267,687;  292,912;  285,165;  287,755
267,777;  291,662;  283,986;  284,615
267,867;  317,902;  312,125;  312,585
267,956;  310,332;  302,466;  304,005
268,046;  316,672;  305,466;  310,865
268,136;  305,132;  296,875;  298,905
268,226;  284,062;  274,885;  274,965
268,316;  289,852;  280,766;  280,845
268,406;  297,262;  289,516;  287,595
268,495;  293,052;  284,415;  287,935
268,585;  315,552;  306,716;  309,605
268,675;  287,082;  284,336;  285,535
268,765;  304,772;  296,355;  300,115
268,854;  291,462;  285,935;  286,715
268,944;  300,902;  291,646;  293,805
269,034;  291,912;  283,986;  289,715
269,124;  297,402;  287,216;  290,705
269,213;  291,292;  286,336;  285,525
269,303;  294,322;  290,466;  288,585
269,393;  307,042;  299,845;  298,345
269,483;  304,882;  300,966;  302,735
269,572;  288,412;  282,875;  284,665
269,662;  287,862;  276,105;  283,315
269,752;  322,552;  312,736;  315,705
269,841;  275,372;  266,046;  269,455
269,931;  287,082;  281,586;  283,075
270,021;  308,552;  300,766;  304,675
270,110;  296,312;  285,695;  288,925
270,200;  302,732;  291,665;  299,445
270,289;  286,362;  280,785;  281,105
270,379;  310,892;  301,466;  302,775
270,469;  298,312;  290,556;  289,955
270,558;  306,202;  303,655;  302,185
270,648;  290,502;  282,785;  284,885
270,737;  297,502;  288,526;  291,525
270,827;  316,432;  310,185;  313,455
270,916;  294,322;  286,935;  289,915
271,006;  298,642;  293,475;  292,885
271,096;  323,582;  317,005;  317,215
271,185;  295,272;  289,896;  289,145
271,275;  311,772;  300,706;  303,575
271,364;  289,662;  281,535;  285,725
271,454;  319,972;  308,255;  315,275
271,543;  302,792;  296,935;  297,745
271,633;  297,402;  293,926;  292,835
271,722;  295,732;  292,255;  296,455
271,812;  295,402;  286,296;  289,275
271,901;  300,662;  292,326;  293,765
271,990;  295,342;  291,836;  290,915
272,080;  298,122;  290,635;  294,915
272,169;  308,232;  301,905;  302,555
272,259;  296,172;  293,225;  292,695
272,348;  311,202;  305,796;  308,535
272,438;  301,562;  296,935;  293,635
272,527;  312,242;  303,996;  304,365
272,616;  309,512;  301,866;  305,295
272,706;  329,932;  320,935;  323,195
272,795;  320,412;  314,076;  315,755
272,884;  304,062;  297,076;  299,515
272,974;  324,162;  317,975;  319,965
273,063;  345,772;  338,206;  337,765
273,152;  313,512;  310,306;  307,735
273,242;  326,552;  320,276;  324,915
273,331;  326,562;  319,315;  322,835
273,420;  308,642;  301,105;  310,255
273,510;  316,482;  307,355;  308,155
273,599;  312,122;  303,255;  306,195
273,688;  311,222;  302,605;  301,885
273,778;  294,152;  285,065;  287,095
273,867;  320,022;  320,266;  317,015
273,956;  311,032;  303,725;  303,805
274,045;  278,502;  273,966;  275,965
274,135;  310,692;  303,905;  305,375
274,224;  298,472;  286,516;  290,045
274,313;  313,962;  305,586;  307,745
274,402;  290,652;  284,796;  287,085
274,491;  318,192;  310,975;  312,995
274,581;  307,372;  301,415;  302,765
274,670;  296,952;  293,146;  294,385
274,759;  307,432;  299,405;  300,435
274,848;  284,752;  276,655;  279,925
274,937;  295,332;  289,945;  287,635
275,026;  291,922;  285,616;  287,835
275,116;  325,852;  316,415;  315,805
275,205;  296,852;  266,926;  271,135
275,294;  330,292;  302,315;  304,335
275,383;  305,912;  299,905;  297,985
275,472;  295,252;  290,005;  290,825
275,561;  297,042;  290,505;  290,285
275,650;  315,082;  306,046;  306,435
275,739;  303,152;  294,776;  297,985
275,828;  284,282;  274,635;  277,965
275,917;  319,952;  312,065;  306,825
276,006;  301,892;  295,426;  296,835
276,095;  300,412;  294,526;  298,665
276,184;  312,002;  309,556;  307,945
276,273;  308,222;  303,105;  304,505
276,362;  281,682;  275,896;  278,535
276,451;  298,062;  291,306;  291,915
276,540;  300,672;  295,896;  296,105
276,629;  297,642;  292,576;  293,225
276,718;  277,022;  270,695;  274,545
276,807;  276,942;  271,625;  274,825
276,896;  288,722;  280,526;  284,495
276,985;  288,192;  283,616;  289,365
277,074;  307,222;  299,105;  300,525
277,163;  300,662;  294,746;  299,085
277,252;  283,032;  279,646;  276,465
277,341;  290,402;  281,236;  289,265
277,430;  281,542;  276,845;  279,355
277,519;  305,372;  298,956;  301,695
277,608;  270,132;  266,546;  267,775
277,696;  276,882;  266,975;  269,445
277,785;  285,202;  284,095;  283,485
277,874;  304,332;  299,605;  296,795
277,963;  292,922;  288,155;  289,995
278,052;  268,252;  264,776;  265,525
278,141;  293,252;  288,415;  290,745
278,229;  295,152;  290,146;  291,935
278,318;  276,852;  268,236;  271,495
278,407;  292,182;  285,576;  285,935
278,496;  292,972;  289,915;  291,965
278,585;  304,662;  300,486;  302,275
278,673;  270,862;  263,836;  266,715
278,762;  270,232;  266,176;  270,485
278,851;  292,582;  285,496;  286,035
278,940;  308,052;  303,685;  303,305
279,028;  302,362;  296,306;  299,585
279,117;  294,162;  282,725;  286,655
279,206;  286,262;  279,475;  284,105
279,294;  288,242;  284,396;  286,665
279,383;  292,462;  286,646;  287,335
279,472;  301,782;  298,095;  298,295
279,561;  289,792;  283,355;  284,975
279,649;  315,602;  308,535;  308,935
279,738;  262,072;  255,566;  255,215
279,827;  314,402;  306,785;  308,805
279,915;  280,422;  275,285;  276,335
280,004;  293,412;  286,565;  288,905
280,092;  311,822;  305,236;  306,635
280,181;  290,152;  280,516;  282,605
280,270;  295,162;  277,866;  281,595
280,358;  308,092;  291,366;  288,915
280,447;  273,482;  261,415;  264,455
280,535;  285,372;  276,016;  275,945
280,624;  283,142;  274,185;  276,805
280,713;  285,582;  277,146;  283,385
280,801;  298,062;  293,116;  293,805
280,890;  297,492;  289,716;  295,475
280,978;  286,912;  280,755;  281,945
281,067;  261,002;  250,676;  255,865
281,155;  286,252;  274,855;  275,705
281,244;  327,242;  313,595;  316,445
281,332;  301,482;  290,845;  293,825
281,421;  279,722;  271,605;  273,675
281,509;  289,492;  284,646;  282,415
281,598;  270,482;  262,435;  263,765
281,686;  297,232;  290,776;  288,945
281,775;  290,892;  285,516;  290,815
281,863;  285,982;  278,016;  279,225
281,951;  280,222;  267,665;  270,735
282,040;  316,322;  300,315;  301,115
282,128;  304,932;  288,375;  294,235
282,217;  274,212;  265,926;  266,075
282,305;  307,952;  294,796;  294,045
282,393;  294,212;  286,505;  284,595
282,482;  285,112;  279,535;  283,255
282,570;  281,192;  266,945;  270,215
282,658;  290,482;  276,116;  277,715
282,747;  282,572;  265,026;  267,905
282,835;  321,992;  306,076;  309,035
282,923;  274,632;  264,655;  267,805
283,012;  301,802;  291,366;  296,345
283,100;  276,922;  269,185;  274,675
283,188;  266,812;  261,125;  262,525
283,277;  289,862;  284,336;  284,745
283,365;  279,492;  271,676;  278,375
283,453;  274,772;  264,755;  270,455
283,542;  298,942;  290,896;  293,765
283,630;  284,652;  276,195;  278,595
283,718;  279,882;  271,195;  274,365
283,806;  250,102;  241,706;  247,485
283,894;  280,472;  274,336;  274,395
283,983;  287,452;  282,165;  282,605
284,071;  294,352;  285,285;  291,495
284,159;  314,612;  309,125;  314,805
284,247;  294,752;  287,466;  288,555
284,335;  292,842;  286,935;  287,485
284,424;  292,642;  283,915;  288,465
284,512;  288,922;  283,475;  286,175
284,600;  282,312;  279,415;  280,145
284,688;  318,862;  312,815;  317,115
284,776;  291,602;  286,815;  287,745
284,864;  315,972;  302,125;  308,655
284,952;  296,672;  289,625;  289,025
285,041;  301,792;  298,255;  298,145
285,129;  311,842;  299,435;  302,445
285,217;  307,542;  300,056;  303,885
285,305;  322,172;  318,676;  319,885
285,393;  284,082;  275,776;  278,695
285,481;  300,182;  296,665;  298,405
285,569;  290,382;  282,966;  285,145
285,657;  301,472;  295,165;  296,255
285,745;  297,702;  292,655;  293,125
285,833;  298,482;  289,505;  293,165
285,921;  305,892;  298,116;  300,945
286,009;  307,432;  301,105;  303,655
286,097;  303,262;  298,236;  301,315
286,185;  289,962;  284,405;  284,795
286,273;  287,312;  283,415;  284,655
286,361;  315,192;  307,915;  311,825
286,449;  301,592;  296,195;  294,565
286,537;  305,172;  304,105;  302,085
286,625;  294,922;  291,185;  293,415
286,713;  282,202;  275,806;  280,315
286,801;  314,382;  312,076;  307,795
286,889;  324,112;  319,435;  320,055
286,976;  297,892;  287,905;  291,205
287,064;  314,052;  307,635;  311,875
287,152;  308,332;  303,576;  305,585
287,240;  311,762;  309,185;  308,845
287,328;  288,802;  287,685;  281,755
287,416;  298,962;  290,975;  292,385
287,504;  303,112;  294,435;  298,285
287,591;  303,092;  298,176;  300,225
287,679;  290,282;  286,095;  286,145
287,767;  302,882;  298,206;  296,985
287,855;  312,982;  303,736;  307,515
287,943;  313,292;  306,716;  309,435
288,030;  294,802;  293,456;  291,795
288,118;  324,052;  318,255;  318,995
288,206;  279,962;  274,956;  275,705
288,294;  309,912;  301,986;  304,135
288,382;  305,972;  300,776;  303,615
288,469;  310,522;  304,396;  308,895
288,557;  298,572;  294,095;  292,615
288,645;  328,792;  323,396;  323,315
288,732;  282,472;  278,915;  279,235
288,820;  307,832;  304,576;  306,785
288,908;  307,172;  304,826;  303,915
288,995;  320,272;  310,945;  310,305
289,083;  300,902;  293,026;  292,935
289,171;  333,592;  320,165;  325,565
289,258;  374,352;  322,176;  324,305
289,346;  436,332;  326,266;  329,365
289,434;  318,692;  303,435;  306,185
289,521;  289,532;  280,415;  286,295
289,609;  324,942;  320,426;  325,405
289,697;  318,972;  312,336;  315,125
289,784;  301,672;  295,445;  295,775
289,872;  314,012;  306,905;  313,015
289,959;  285,402;  282,375;  283,415
290,047;  303,172;  296,546;  300,865
290,134;  278,132;  272,665;  273,815
290,222;  318,412;  308,915;  308,665
290,310;  311,302;  304,905;  307,145
290,397;  333,602;  328,505;  332,835
290,485;  293,102;  290,815;  293,005
290,572;  317,922;  313,225;  314,645
290,660;  311,052;  306,385;  306,205
290,747;  296,502;  295,165;  292,775
290,835;  302,762;  299,016;  302,505
290,922;  307,862;  304,016;  305,515
291,009;  306,692;  297,676;  301,715
291,097;  299,282;  297,926;  300,755
291,184;  337,822;  332,716;  338,585
291,272;  288,092;  282,966;  288,375
291,359;  291,962;  283,915;  289,305
291,447;  308,682;  303,086;  304,735
291,534;  328,832;  327,326;  323,005
291,621;  304,922;  302,845;  301,105
291,709;  289,962;  285,716;  283,705
291,796;  322,772;  320,146;  316,555
291,884;  298,632;  291,466;  296,115
291,971;  324,902;  315,065;  320,295
292,058;  294,022;  288,725;  288,985
292,146;  301,712;  293,746;  297,955
292,233;  287,412;  285,426;  284,765
292,320;  297,992;  294,306;  297,685
292,408;  316,132;  309,086;  308,565
292,495;  304,642;  290,565;  293,085
292,582;  293,232;  286,845;  287,375
292,669;  288,882;  281,415;  286,055
292,757;  287,562;  282,176;  283,865
292,844;  313,772;  312,935;  313,175
292,931;  281,412;  275,176;  277,485
293,018;  298,602;  291,516;  289,915
293,106;  305,762;  299,966;  303,035
293,193;  277,982;  272,415;  274,385
293,280;  304,182;  297,255;  303,635
293,367;  297,462;  296,956;  295,215
293,455;  300,202;  293,185;  294,155
293,542;  282,022;  275,695;  281,445
293,629;  281,302;  279,035;  281,855
293,716;  310,782;  305,646;  311,195
293,803;  290,492;  287,105;  287,695
293,890;  314,262;  310,336;  312,555
293,978;  294,892;  284,105;  290,755
294,065;  289,042;  286,725;  284,345
294,152;  310,652;  302,385;  304,355
294,239;  279,232;  275,646;  274,625
294,326;  294,522;  286,746;  290,635
294,413;  282,692;  278,046;  278,465
294,500;  297,802;  292,586;  295,255
294,587;  291,692;  283,915;  287,195
294,674;  312,202;  305,875;  306,925
294,761;  292,102;  288,896;  287,945
294,848;  294,872;  286,866;  294,115
294,935;  295,122;  290,746;  290,555
295,022;  277,452;  272,396;  274,105
295,109;  265,632;  258,466;  262,665
295,196;  296,062;  291,405;  295,265
295,283;  285,162;  281,176;  278,745
295,370;  319,502;  308,975;  312,155
295,457;  296,262;  289,986;  290,435
295,544;  291,702;  285,105;  287,985
295,631;  297,682;  290,165;  295,805
295,718;  276,452;  272,676;  274,015
295,805;  303,862;  296,225;  296,685
295,892;  306,532;  300,005;  304,445
295,979;  301,932;  291,266;  292,755
296,066;  305,312;  293,996;  296,145
296,153;  307,382;  296,026;  296,355
296,240;  309,882;  299,206;  300,535
296,327;  301,022;  285,206;  285,615
296,413;  323,972;  301,285;  305,075
296,500;  338,992;  302,755;  305,145
296,587;  515,752;  288,616;  286,065
296,674; 1644,482;  294,396;  297,335
296,761;  812,502;  300,095;  298,245
296,848;  308,402;  281,956;  285,815
296,934;  301,492;  290,966;  295,265
297,021;  301,842;  292,565;  292,975
297,108;  281,602;  276,366;  280,895
297,195;  297,292;  291,466;  294,705
297,282;  293,552;  286,535;  286,195
297,368;  314,422;  310,026;  305,975
297,455;  285,882;  279,155;  283,145
297,542;  315,502;  311,375;  313,235
297,629;  304,992;  299,016;  300,205
297,715;  308,982;  308,285;  310,385
297,802;  305,572;  300,466;  303,285
297,889;  317,562;  311,716;  313,025
297,975;  331,012;  322,836;  323,685
298,062;  320,052;  310,505;  312,995
298,149;  282,632;  273,505;  274,905
298,235;  301,332;  291,135;  294,075
298,322;  300,352;  294,806;  292,785
298,409;  314,152;  311,195;  312,715
298,495;  293,692;  285,435;  283,435
298,582;  314,112;  307,516;  308,065
298,669;  298,452;  290,526;  294,245
298,755;  303,152;  299,065;  302,235
298,842;  311,812;  304,755;  309,095
298,928;  309,582;  303,855;  304,595
299,015;  301,562;  294,896;  296,705
299,102;  325,582;  318,986;  320,565
299,188;  320,092;  315,956;  316,045
299,275;  315,122;  309,926;  309,365
299,361;  282,692;  278,875;  281,665
299,448;  315,612;  312,466;  310,885
299,534;  314,752;  312,355;  312,735
299,621;  309,422;  304,655;  303,865
299,707;  306,232;  299,016;  304,675
299,794;  322,472;  319,885;  319,685
299,880;  325,452;  317,076;  318,325
299,967;  304,662;  296,345;  296,295
300,053;  303,592;  295,935;  299,065
300,140;  331,982;  323,086;  328,875
300,226;  317,082;  313,885;  313,595
300,312;  309,642;  307,276;  306,695
300,399;  311,902;  305,505;  308,465
300,485;  300,322;  297,776;  301,725
300,572;  286,622;  281,655;  281,655
300,658;  299,062;  297,216;  294,585
300,744;  317,142;  310,706;  311,315
300,831;  318,412;  313,595;  318,275
300,917;  326,132;  321,676;  320,915
301,004;  313,612;  311,556;  311,015
301,090;  280,872;  277,785;  280,095
301,176;  291,142;  284,255;  288,205
301,263;  319,272;  313,676;  314,925
301,349;  294,222;  289,475;  293,305
301,435;  287,952;  284,276;  285,095
301,521;  321,172;  314,625;  313,245
301,608;  318,202;  314,695;  315,515
301,694;  304,982;  297,896;  300,535
301,780;  306,912;  303,046;  298,285
301,867;  288,252;  280,836;  285,265
301,953;  310,962;  296,595;  301,165
302,039;  382,232;  295,116;  297,515
302,125;  542,782;  298,445;  304,125
302,211;  362,492;  332,926;  334,115
302,298;  356,702;  301,926;  305,295
302,384;  298,522;  281,116;  287,095
302,470;  298,902;  289,505;  291,305
302,556;  309,082;  301,935;  305,645
302,642;  301,662;  293,456;  295,155
302,729;  302,552;  289,306;  293,525
302,815;  318,512;  317,966;  319,775
302,901;  300,372;  296,475;  298,745
302,987;  313,062;  307,716;  308,245
303,073;  304,012;  304,185;  302,795
303,159;  301,642;  296,945;  298,695
303,245;  290,072;  284,336;  290,495
303,331;  286,912;  283,486;  286,455
303,417;  300,682;  294,556;  296,145
303,503;  311,182;  310,046;  312,155
303,590;  293,352;  289,146;  291,705
303,676;  305,242;  299,505;  300,385
303,762;  292,772;  287,185;  287,835
303,848;  318,562;  311,026;  312,055
303,934;  312,022;  304,915;  307,775
304,020;  306,652;  301,796;  304,745
304,106;  317,332;  309,975;  314,015
304,192;  300,792;  291,796;  296,765
304,278;  309,122;  302,896;  304,455
304,364;  330,832;  323,026;  324,755
304,450;  308,642;  301,496;  304,095
304,535;  304,762;  304,005;  304,245
304,621;  304,432;  301,565;  302,205
304,707;  310,452;  306,296;  307,635
304,793;  323,012;  318,625;  318,575
304,879;  314,032;  306,776;  310,585
304,965;  315,322;  312,845;  313,365
305,051;  313,792;  308,616;  311,355
305,137;  322,072;  318,146;  324,235
305,223;  296,882;  291,445;  293,725
305,309;  320,202;  313,496;  317,755
305,394;  314,752;  311,996;  311,465
305,480;  305,202;  299,426;  304,775
305,566;  309,402;  309,355;  310,525
305,652;  315,612;  313,605;  317,885
305,738;  351,272;  349,206;  353,435
305,824;  314,182;  316,016;  315,095
305,909;  327,162;  323,815;  325,155
305,995;  295,012;  289,595;  290,025
306,081;  351,832;  348,345;  350,435
306,167;  313,412;  303,966;  307,875
306,252;  327,962;  324,375;  325,505
306,338;  338,212;  331,366;  335,515
306,424;  308,862;  306,595;  307,415
306,510;  322,222;  316,105;  319,795
306,595;  325,072;  323,685;  322,125
306,681;  320,692;  316,926;  318,895
306,767;  311,002;  305,336;  309,425
306,852;  336,252;  328,255;  331,375
306,938;  327,902;  325,796;  325,905
307,024;  303,322;  302,875;  304,755
307,109;  342,642;  336,065;  338,965
307,195;  317,752;  316,326;  318,385
307,281;  321,902;  318,716;  318,575
307,366;  317,082;  313,345;  310,455
307,452;  320,022;  312,426;  316,335
307,537;  301,522;  296,776;  298,485
307,623;  295,592;  292,105;  296,985
307,709;  313,382;  309,885;  310,795
307,794;  295,872;  288,576;  291,835
307,880;  326,442;  320,236;  319,735
307,965;  312,492;  307,456;  307,525
308,051;  297,972;  297,195;  298,065
308,136;  300,572;  297,165;  296,745
308,222;  305,382;  300,366;  302,045
308,307;  297,212;  295,116;  296,645
308,393;  304,042;  295,535;  300,335
308,478;  321,422;  321,826;  318,975
308,564;  295,772;  295,516;  288,925
308,649;  310,562;  308,496;  308,295
308,735;  304,962;  294,155;  300,535
308,820;  321,172;  320,655;  319,455
308,906;  301,982;  291,625;  300,515
308,991;  343,092;  341,076;  338,375
309,076;  322,792;  319,336;  320,645
309,162;  288,982;  283,945;  283,805
309,247;  311,322;  309,945;  308,415
309,333;  298,832;  291,646;  297,855
309,418;  305,562;  298,665;  301,955
309,503;  303,692;  297,646;  300,235
309,589;  305,782;  303,725;  305,345
309,674;  293,732;  290,945;  289,235
309,759;  306,852;  303,315;  304,195
309,845;  316,892;  311,016;  312,415
309,930;  309,262;  305,966;  307,375
310,015;  277,412;  276,095;  276,835
310,101;  319,332;  315,616;  319,905
310,186;  292,482;  285,426;  288,565
310,271;  302,452;  297,296;  298,295
310,357;  295,682;  297,526;  296,455
310,442;  310,002;  302,445;  303,865
310,527;  303,622;  297,766;  301,125
310,612;  283,802;  278,195;  281,425
310,698;  321,262;  319,725;  321,135
310,783;  307,422;  301,176;  302,685
310,868;  298,952;  294,285;  295,125
310,953;  288,102;  284,165;  285,195
311,038;  317,462;  311,146;  310,075
311,124;  297,072;  294,635;  290,925
311,209;  284,522;  276,736;  277,355
311,294;  321,402;  310,206;  312,575
311,379;  286,552;  276,785;  277,345
311,464;  302,352;  297,405;  297,635
311,549;  290,892;  282,385;  284,505
311,634;  295,382;  290,396;  286,805
311,719;  327,032;  316,016;  315,415
311,805;  296,452;  289,266;  291,605
311,890;  307,062;  295,165;  295,925
311,975;  295,582;  281,526;  286,055
312,060;  314,122;  298,146;  302,435
312,145;  292,962;  277,586;  276,025
312,230;  319,532;  290,815;  296,495
312,315;  337,242;  294,065;  296,045
312,400;  406,672;  296,396;  299,795
312,485; 1576,242;  290,535;  292,475
312,570; 1263,582;  277,125;  279,615
312,655;  352,242;  308,176;  313,325
312,740;  329,552;  301,616;  302,005
312,825;  342,922;  304,105;  307,725
312,910;  363,302;  307,736;  309,235
312,995;  442,082;  296,236;  298,245
313,080; 1956,302;  285,655;  286,805
313,165; 2192,862;  303,565;  305,305
313,250;  373,242;  287,276;  287,825
313,335;  327,292;  307,435;  312,125
313,419;  284,992;  267,466;  268,635
313,504;  327,152;  313,355;  315,225
313,589;  311,042;  295,216;  297,545
313,674;  319,482;  307,206;  310,085
313,759;  294,182;  281,556;  282,625
313,844;  303,012;  292,776;  291,005
313,929;  301,572;  289,945;  291,695
314,014;  323,482;  313,306;  315,005
314,098;  305,152;  299,035;  300,425
314,183;  274,722;  263,505;  263,795
314,268;  306,012;  296,496;  298,955
314,353;  312,672;  302,026;  306,185
314,438;  317,202;  306,905;  311,515
314,522;  316,152;  309,486;  308,535
314,607;  311,772;  307,565;  307,855
314,692;  308,222;  301,885;  303,855
314,777;  296,782;  291,766;  292,395
314,861;  283,352;  277,285;  276,385
314,946;  320,842;  315,116;  317,565
315,031;  296,662;  291,875;  294,115
315,115;  309,602;  306,206;  308,065
315,200;  314,992;  312,146;  313,065
315,285;  297,832;  289,486;  289,595
315,369;  292,832;  287,945;  288,545
315,454;  315,372;  311,905;  311,025
315,539;  314,052;  310,246;  307,795
315,623;  312,352;  309,426;  313,225
315,708;  339,932;  335,605;  336,825
315,793;  304,492;  297,986;  298,155
315,877;  306,782;  302,975;  305,445
315,962;  292,462;  289,105;  291,925
316,046;  322,872;  317,065;  319,225
316,131;  339,532;  334,516;  337,215
316,216;  312,042;  310,315;  310,785
316,300;  306,102;  303,345;  302,165
316,385;  327,962;  325,315;  324,305
316,469;  333,522;  330,625;  331,955
316,554;  301,462;  296,005;  298,425
316,638;  303,372;  296,725;  301,565
316,723;  297,022;  292,546;  293,795
316,807;  301,182;  299,595;  299,275
316,892;  293,662;  288,975;  289,925
316,976;  318,812;  314,405;  316,505
317,061;  309,772;  306,035;  305,965
317,145;  330,532;  327,655;  325,965
317,230;  325,632;  321,505;  319,905
317,314;  278,922;  275,565;  275,085
317,398;  315,802;  310,706;  312,245
317,483;  290,122;  290,026;  291,085
317,567;  317,542;  315,326;  317,865
317,652;  289,482;  283,526;  286,625
317,736;  312,312;  308,776;  309,285
317,820;  333,892;  329,005;  334,665
317,905;  311,042;  306,706;  307,035
317,989;  297,392;  298,285;  300,875
318,073;  302,122;  298,076;  297,705
318,158;  291,852;  284,966;  285,565
318,242;  302,952;  296,845;  299,095
318,326;  287,842;  283,155;  284,015
318,411;  298,742;  295,125;  296,565
318,495;  286,692;  285,776;  287,165
318,579;  291,262;  288,746;  289,305
318,664;  285,042;  280,315;  284,255
318,748;  311,152;  305,996;  310,145
318,832;  290,512;  290,806;  289,475
318,916;  278,112;  274,785;  277,335
319,001;  302,112;  299,945;  301,485
319,085;  291,742;  292,885;  290,905
319,169;  298,812;  293,396;  294,485
319,253;  288,772;  287,216;  285,525
319,337;  311,492;  306,246;  304,885
319,422;  314,942;  316,125;  313,225
319,506;  290,882;  283,326;  285,905
319,590;  312,292;  303,915;  305,525
319,674;  299,912;  291,926;  295,405
319,758;  304,062;  295,165;  300,215
319,842;  311,662;  306,135;  309,155
319,926;  298,492;  294,815;  295,205
320,010;  269,272;  267,046;  269,575
320,095;  289,422;  280,926;  284,685
320,179;  287,102;  279,125;  281,175
320,263;  286,572;  277,385;  285,805
320,347;  278,382;  271,296;  279,075
320,431;  278,802;  273,435;  274,355
320,515;  300,242;  296,375;  299,935
320,599;  277,542;  269,866;  273,825
320,683;  308,692;  305,706;  305,495
320,767;  270,432;  266,236;  266,205
320,851;  287,922;  281,855;  287,785
320,935;  320,352;  312,565;  318,275
321,019;  297,642;  292,975;  290,075
321,103;  282,822;  278,135;  280,585
321,187;  277,072;  273,165;  273,265
321,271;  299,792;  294,616;  296,825
321,355;  285,792;  281,595;  283,805
321,439;  303,822;  301,216;  301,725
321,523;  281,692;  282,266;  284,705
321,606;  291,442;  287,426;  288,215
321,690;  291,552;  287,026;  288,215
321,774;  296,042;  288,336;  292,205
321,858;  295,212;  292,966;  291,945
321,942;  298,222;  294,276;  298,975
322,026;  288,452;  283,315;  282,695
322,110;  297,402;  293,146;  295,755
322,194;  301,362;  295,355;  301,055
322,277;  287,802;  286,135;  287,285
322,361;  281,712;  278,595;  281,215
322,445;  293,622;  289,315;  291,095
322,529;  300,172;  297,716;  299,645
322,613;  299,452;  297,206;  297,795
322,696;  272,862;  267,695;  272,865
322,780;  288,442;  283,026;  283,485
322,864;  280,572;  272,625;  279,835
322,948;  296,122;  292,326;  295,965
323,031;  282,702;  281,565;  282,215
323,115;  288,932;  284,586;  285,215
323,199;  300,332;  296,565;  299,105
323,282;  313,572;  307,496;  310,065
323,366;  292,122;  287,296;  293,625
323,450;  278,092;  273,496;  275,835
323,533;  319,932;  314,576;  317,415
323,617;  273,172;  268,695;  271,585
323,701;  285,652;  281,105;  283,575
323,784;  298,012;  292,576;  294,205
323,868;  297,592;  297,866;  299,875
323,952;  300,152;  290,966;  294,175
324,035;  310,902;  305,926;  310,825
324,119;  304,792;  295,466;  298,455
324,202;  292,072;  286,836;  292,745
324,286;  290,102;  284,986;  286,605
324,370;  297,472;  293,105;  296,765
324,453;  302,122;  299,616;  301,745
324,537;  302,102;  294,426;  298,035
324,620;  293,912;  286,635;  291,765
324,704;  280,382;  270,445;  276,525
324,787;  300,602;  294,875;  296,265
324,871;  317,262;  310,986;  315,255
324,954;  319,702;  312,246;  315,985
325,038;  310,112;  306,466;  306,985
325,121;  316,592;  308,695;  312,075
325,205;  295,252;  290,396;  293,295
325,288;  287,122;  279,556;  285,675
325,371;  304,262;  298,945;  302,395
325,455;  318,052;  314,026;  312,045
325,538;  286,502;  281,516;  287,185
325,622;  326,782;  320,806;  321,295
325,705;  300,322;  297,716;  298,675
325,788;  315,002;  313,625;  316,645
325,872;  301,292;  300,796;  300,745
325,955;  327,222;  319,845;  325,065
326,039;  312,522;  309,576;  312,795
326,122;  313,822;  310,746;  311,665
326,205;  314,142;  311,806;  310,235
326,289;  322,512;  313,986;  319,245
326,372;  301,222;  294,746;  299,195
326,455;  328,342;  323,095;  324,405
326,538;  317,782;  312,336;  316,545
326,622;  322,482;  318,396;  320,075
326,705;  293,272;  287,315;  287,875
326,788;  324,922;  321,266;  322,405
326,871;  323,212;  315,576;  317,965
326,955;  320,372;  313,836;  315,225
327,038;  309,972;  310,116;  310,855
327,121;  309,072;  301,516;  307,855
327,204;  318,092;  313,216;  314,045
327,288;  334,802;  328,956;  332,375
327,371;  295,002;  288,185;  296,955
327,454;  318,162;  313,065;  313,845
327,537;  300,552;  299,815;  302,435
327,620;  332,882;  322,935;  330,145
327,703;  314,612;  309,076;  310,615
327,786;  316,502;  311,076;  312,115
327,870;  328,222;  323,155;  328,715
327,953;  307,772;  301,155;  305,785
328,036;  300,062;  293,105;  299,035
328,119;  324,152;  317,576;  321,135
328,202;  307,842;  301,885;  305,875
328,285;  328,942;  326,776;  329,015
328,368;  324,152;  320,935;  322,625
328,451;  326,222;  320,635;  322,565
328,534;  306,852;  301,266;  307,075
328,617;  310,062;  305,676;  311,785
328,700;  332,892;  326,505;  326,695
328,783;  323,142;  320,785;  322,875
328,866;  318,712;  314,095;  319,935
328,949;  324,402;  319,966;  326,555
329,032;  302,582;  297,826;  300,605
329,115;  297,852;  290,905;  295,945
329,198;  289,592;  282,956;  283,785
329,281;  301,632;  299,336;  298,465
329,364;  322,632;  316,246;  319,245
329,447;  311,542;  307,176;  309,255
329,530;  333,592;  328,155;  328,175
329,613;  310,412;  300,565;  306,725
329,696;  333,962;  326,806;  330,715
329,778;  315,382;  311,306;  316,915
329,861;  298,722;  295,236;  299,565
329,944;  328,112;  321,685;  327,225
330,027;  316,172;  311,576;  315,115
330,110;  315,322;  307,595;  311,705
330,193;  300,602;  295,306;  299,955
330,275;  317,242;  312,296;  315,835
330,358;  298,292;  291,776;  296,185
330,441;  331,192;  323,586;  325,365
330,524;  313,312;  305,216;  311,095
330,607;  305,032;  304,345;  306,905
330,689;  316,132;  313,105;  314,535
330,772;  316,432;  311,105;  312,425
330,855;  327,162;  325,065;  327,855
330,938;  321,822;  312,315;  321,275
331,020;  322,412;  317,176;  320,535
331,103;  299,872;  293,035;  294,505
331,186;  312,102;  305,146;  307,085
331,268;  301,432;  293,565;  298,695
331,351;  318,622;  313,026;  316,455
331,434;  313,062;  308,385;  312,645
331,516;  321,262;  319,076;  321,185
331,599;  304,932;  297,095;  301,425
331,682;  313,732;  310,736;  310,985
331,764;  298,012;  293,326;  297,915
331,847;  318,432;  313,716;  315,705
331,929;  294,722;  290,026;  293,225
332,012;  312,472;  309,625;  310,055
332,095;  329,292;  323,306;  326,625
332,177;  326,632;  320,806;  324,285
332,260;  329,232;  327,526;  328,035
332,342;  314,332;  309,246;  314,445
332,425;  314,122;  312,516;  311,505
332,507;  313,682;  308,526;  311,575
332,590;  290,262;  287,595;  291,655
332,672;  298,212;  294,885;  298,455
332,755;  308,032;  306,855;  311,605
332,837;  309,902;  310,716;  312,255
332,920;  317,232;  309,076;  315,155
333,002;  331,302;  325,676;  328,895
333,085;  314,282;  313,375;  315,165
333,167;  302,212;  296,875;  298,575
333,249;  301,102;  294,526;  298,145
333,332;  298,452;  293,296;  297,715
333,414;  308,392;  300,035;  304,875
333,497;  308,152;  300,255;  302,305
333,579;  307,232;  300,996;  306,375
333,661;  322,442;  319,706;  320,745
333,744;  299,352;  293,695;  297,125
333,826;  311,242;  305,766;  306,065
333,908;  322,802;  313,896;  316,665
333,991;  309,172;  291,266;  291,545
334,073;  470,302;  312,706;  318,525
334,155;  360,642;  304,086;  305,525
334,238;  326,392;  318,576;  326,145
334,320;  301,912;  297,046;  300,585
334,402;  309,612;  302,996;  304,895
334,485;  305,812;  303,655;  304,015
334,567;  304,952;  299,776;  301,975
334,649;  285,962;  278,426;  282,925
334,731;  316,242;  313,456;  317,305
334,813;  322,552;  315,605;  320,355
334,896;  294,962;  290,185;  294,595
334,978;  307,462;  309,165;  302,585
335,060;  308,862;  304,255;  304,235
335,142;  302,872;  301,665;  302,275
335,224;  313,922;  309,766;  311,745
335,307;  301,032;  297,456;  298,965
335,389;  316,822;  310,385;  317,305
335,471;  306,192;  299,896;  306,115
335,553;  324,742;  319,866;  318,905
335,635;  318,572;  312,836;  315,315
335,717;  303,182;  298,195;  300,145
335,799;  323,922;  322,695;  323,585
335,881;  283,202;  278,385;  282,845
335,963;  294,582;  291,796;  293,005
336,045;  299,002;  295,516;  301,085
336,128;  281,812;  270,945;  275,225
336,210;  293,672;  288,996;  292,295
336,292;  300,782;  297,845;  300,615
336,374;  308,602;  300,956;  306,155
336,456;  292,152;  285,616;  288,495
336,538;  311,752;  303,165;  304,435
336,620;  317,222;  310,576;  312,205
336,702;  295,482;  294,766;  294,235
336,783;  309,822;  302,556;  304,225
336,865;  310,892;  304,176;  305,725
336,947;  316,172;  308,486;  311,205
337,029;  286,062;  281,826;  282,945
337,111;  319,932;  316,266;  316,735
337,193;  286,472;  280,986;  284,795
337,275;  312,592;  310,815;  314,535
337,357;  322,672;  318,815;  324,805
337,439;  311,972;  305,255;  310,655
337,521;  279,192;  277,225;  280,915
337,602;  303,282;  298,435;  301,085
337,684;  319,552;  315,635;  317,455
337,766;  317,082;  312,266;  312,305
337,848;  298,382;  295,086;  301,025
337,930;  303,452;  303,165;  306,525
338,012;  302,032;  298,586;  299,555
338,093;  316,022;  312,396;  315,895
338,175;  322,472;  318,195;  321,575
338,257;  311,662;  306,945;  309,225
338,339;  299,972;  294,086;  300,165
338,420;  312,742;  310,986;  310,895
338,502;  303,812;  298,836;  304,265
338,584;  286,212;  286,736;  289,235
338,666;  307,632;  303,426;  302,365
338,747;  335,512;  330,806;  334,875
338,829;  309,362;  309,176;  309,265
338,911;  300,162;  296,236;  298,915
338,992;  296,282;  295,746;  294,435
339,074;  306,472;  306,155;  307,855
339,156;  300,302;  298,176;  303,395
339,237;  327,942;  325,035;  327,765
339,319;  297,322;  294,935;  300,045
339,400;  311,852;  309,065;  311,225
339,482;  284,622;  278,165;  280,605
339,564;  319,872;  317,026;  316,575
339,645;  307,742;  304,595;  308,105
339,727;  297,222;  290,216;  294,375
339,808;  323,652;  317,685;  322,555
339,890;  304,402;  299,956;  302,415
339,971;  320,322;  307,016;  315,055
340,053;  341,272;  336,746;  335,255
340,134;  298,192;  296,535;  298,415
340,216;  319,992;  315,556;  319,645
340,297;  301,472;  298,396;  301,525
340,379;  320,062;  314,736;  316,975
340,460;  310,292;  306,685;  306,615
340,542;  301,202;  294,535;  297,775
340,623;  314,972;  307,926;  312,435
340,705;  303,232;  297,516;  295,795
340,786;  295,332;  289,685;  291,925
340,868;  306,732;  308,826;  304,055
340,949;  288,482;  285,605;  286,145
341,030;  331,042;  321,435;  328,715
341,112;  285,152;  280,565;  284,075
341,193;  275,332;  270,135;  273,595
341,274;  324,882;  322,176;  320,965
341,356;  323,472;  320,716;  321,795
341,437;  299,972;  301,635;  300,825
341,518;  315,382;  307,176;  314,795
341,600;  323,662;  320,866;  322,465
341,681;  334,182;  328,866;  332,375
341,762;  326,802;  325,206;  323,705
341,844;  291,922;  287,146;  292,185
341,925;  311,692;  308,225;  311,205
342,006;  324,872;  320,426;  323,055
342,087;  294,782;  288,095;  292,095
342,169;  310,072;  307,026;  309,845
342,250;  291,022;  286,935;  285,935
342,331;  300,212;  298,706;  299,075
342,412;  309,012;  307,655;  310,045
342,493;  294,662;  289,415;  293,325
342,575;  328,232;  327,095;  327,355
342,656;  318,982;  318,466;  318,265
342,737;  332,612;  329,836;  330,295
342,818;  309,192;  307,996;  309,015
342,899;  317,062;  314,505;  317,165
342,980;  310,412;  306,695;  310,155
343,061;  306,062;  303,065;  304,715
343,143;  322,702;  319,535;  319,565
343,224;  314,742;  306,706;  305,915
343,305;  306,722;  299,625;  303,115
343,386;  306,352;  297,996;  300,475
343,467;  306,732;  303,155;  305,535
343,548;  309,702;  304,176;  305,935
343,629;  322,342;  316,405;  317,625
343,710;  328,352;  322,766;  321,015
343,791;  324,472;  325,065;  327,935
343,872;  301,482;  298,975;  297,795
343,953;  321,522;  314,826;  316,625
344,034;  324,212;  319,475;  324,485
344,115;  310,752;  304,255;  303,425
344,196;  300,382;  298,935;  302,165
344,277;  297,982;  293,306;  294,615
344,358;  311,662;  304,755;  307,345
344,439;  299,272;  293,975;  294,205
344,520;  304,332;  298,546;  300,975
344,601;  319,582;  314,646;  315,525
344,681;  307,382;  302,426;  303,825
344,762;  289,762;  283,466;  287,625
344,843;  281,132;  275,996;  281,125
344,924;  313,542;  303,635;  306,085
345,005;  293,072;  287,176;  288,725
345,086;  313,222;  307,665;  309,725
345,167;  296,212;  293,986;  295,575
345,247;  330,952;  323,896;  328,905
345,328;  319,622;  315,315;  317,705
345,409;  311,132;  307,056;  309,355
345,490;  313,342;  308,415;  314,245
345,571;  310,492;  304,875;  312,045
345,651;  284,202;  279,456;  279,055
345,732;  314,852;  307,285;  312,275
345,813;  315,242;  311,836;  317,355
345,894;  286,972;  285,785;  287,595
345,974;  311,502;  309,556;  311,845
346,055;  300,592;  296,435;  295,735
346,136;  310,272;  304,405;  306,245
346,216;  327,192;  324,945;  328,565
346,297;  307,432;  306,565;  304,225
346,378;  296,162;  291,996;  294,005
346,458;  314,032;  307,375;  313,405
346,539;  306,032;  302,306;  305,975
346,620;  309,472;  305,815;  306,685
346,700;  286,982;  288,755;  289,765
346,781;  289,532;  284,556;  286,765
346,861;  308,372;  304,336;  307,325
346,942;  303,992;  304,336;  302,715
347,023;  316,842;  317,885;  316,005
347,103;  302,602;  297,396;  302,825
347,184;  301,622;  294,475;  296,785
347,264;  299,972;  294,565;  296,805
347,345;  291,712;  290,526;  295,525
347,425;  289,852;  285,125;  290,565
347,506;  287,932;  283,595;  283,195
347,586;  295,452;  289,725;  292,435
347,667;  310,632;  307,616;  304,445
347,747;  310,812;  311,116;  310,775
347,828;  301,812;  296,486;  296,465
347,908;  310,722;  303,306;  307,175
347,988;  303,632;  298,655;  306,125
348,069;  316,422;  311,056;  311,395
348,149;  309,212;  303,956;  309,065
348,230;  314,522;  309,956;  310,945
348,310;  285,982;  284,185;  285,715
348,390;  290,792;  288,526;  288,625
348,471;  302,932;  303,665;  305,125
348,551;  294,942;  290,695;  293,935
348,632;  292,162;  289,505;  294,065
348,712;  290,212;  292,706;  295,115
348,792;  330,072;  329,836;  329,985
348,873;  285,392;  281,905;  283,045
348,953;  291,252;  289,845;  290,395
349,033;  301,472;  297,466;  299,465
349,113;  289,692;  286,076;  286,905
349,194;  306,992;  301,595;  304,825
349,274;  309,422;  304,796;  307,395
349,354;  307,402;  303,046;  308,435
349,434;  300,582;  300,116;  301,925
349,515;  323,122;  316,486;  322,185
349,595;  305,342;  302,206;  302,035
349,675;  310,492;  305,635;  308,015
349,755;  301,002;  296,746;  297,615
349,835;  309,032;  301,195;  307,695
349,916;  304,032;  298,435;  303,915
349,996;  294,552;  291,105;  291,745
350,076;  314,222;  312,375;  317,645
350,156;  289,422;  284,836;  287,665
350,236;  316,752;  314,116;  311,925
350,316;  293,302;  292,975;  295,765
350,396;  309,112;  305,646;  310,065
350,476;  303,482;  301,826;  304,275
350,556;  299,832;  293,966;  299,935
350,637;  323,452;  321,005;  321,825
350,717;  290,942;  288,445;  291,825
350,797;  307,202;  302,616;  305,905
350,877;  296,522;  289,875;  294,705
350,957;  301,262;  297,635;  300,095
351,037;  304,272;  298,556;  303,455
351,117;  302,632;  296,276;  296,555
351,197;  308,012;  303,366;  306,305
351,277;  306,802;  300,556;  301,575
351,357;  314,842;  308,806;  314,445
351,437;  311,192;  306,105;  307,755
351,516;  319,282;  317,986;  318,355
351,596;  297,752;  292,896;  296,025
351,676;  295,182;  290,405;  294,265
351,756;  327,812;  323,426;  326,135
351,836;  317,272;  313,866;  317,935
351,916;  303,492;  297,905;  298,975
351,996;  308,122;  303,996;  305,265
352,076;  305,782;  303,486;  303,085
352,156;  324,052;  319,556;  320,405
352,235;  304,852;  301,255;  300,955
352,315;  317,452;  312,456;  314,415
352,395;  311,742;  308,206;  309,425
352,475;  322,842;  315,405;  320,955
352,555;  334,932;  330,236;  330,635
352,634;  328,492;  321,956;  326,705
352,714;  306,882;  302,595;  304,055
352,794;  359,432;  354,466;  358,075
352,874;  318,552;  314,685;  317,555
352,953;  340,532;  337,676;  339,095
353,033;  327,652;  319,306;  320,925
353,113;  336,772;  332,135;  336,575
353,193;  328,202;  328,046;  329,935
353,272;  335,122;  333,135;  334,365
353,352;  314,112;  307,035;  311,285
353,432;  348,692;  343,005;  347,495
353,511;  333,272;  326,185;  330,665
353,591;  366,702;  361,616;  362,555
353,671;  334,992;  331,926;  333,015
353,750;  332,852;  332,296;  331,275
353,830;  318,072;  313,646;  317,015
353,909;  346,122;  339,836;  343,655
353,989;  320,692;  317,385;  320,255
354,069;  321,272;  319,456;  319,155
354,148;  342,312;  335,035;  339,585
354,228;  317,312;  315,695;  316,905
354,307;  335,842;  329,405;  332,345
354,387;  327,332;  322,095;  322,965
354,466;  318,642;  311,635;  316,045
354,546;  339,742;  335,135;  337,645
354,625;  322,582;  319,815;  320,355
354,705;  324,872;  324,246;  326,865
354,784;  320,142;  316,445;  318,195
354,864;  320,742;  316,635;  317,385
354,943;  339,592;  333,695;  339,105
355,023;  310,732;  310,996;  312,285
355,102;  365,882;  362,866;  363,435
355,181;  319,752;  315,966;  318,045
355,261;  343,432;  338,056;  342,165
355,340;  307,312;  303,845;  307,115
355,420;  345,162;  340,105;  342,305
355,499;  326,902;  322,975;  325,635
355,578;  320,472;  315,276;  316,885
355,658;  333,532;  332,875;  333,745
355,737;  323,482;  317,576;  319,005
355,816;  329,802;  323,276;  324,605
355,896;  321,512;  316,026;  321,355
355,975;  313,382;  307,355;  310,055
356,054;  311,532;  311,935;  312,455
356,133;  294,362;  290,565;  293,305
356,213;  328,372;  324,845;  324,825
356,292;  311,482;  304,016;  309,325
356,371;  317,852;  314,146;  314,035
356,451;  331,252;  324,755;  327,685
356,530;  352,822;  349,496;  350,795
356,609;  318,882;  311,146;  315,535
356,688;  319,942;  316,475;  316,165
356,767;  309,852;  304,695;  309,855
356,846;  329,742;  327,035;  327,235
356,926;  341,722;  340,016;  343,965
357,005;  323,362;  318,345;  318,565
357,084;  310,152;  304,466;  308,385
357,163;  319,112;  317,706;  317,185
357,242;  322,912;  320,146;  319,515
357,321;  316,002;  314,496;  316,575
357,400;  323,252;  321,236;  318,865
357,479;  321,262;  317,725;  320,795
357,559;  326,392;  321,405;  325,705
357,638;  304,982;  300,616;  298,815
357,717;  315,422;  313,746;  311,555
357,796;  332,972;  329,266;  330,875
357,875;  315,252;  314,466;  313,455
357,954;  314,552;  310,155;  313,855
358,033;  325,152;  323,405;  320,935
358,112;  331,612;  329,966;  328,315
358,191;  320,202;  315,276;  318,965
358,270;  296,442;  295,505;  297,695
358,349;  327,352;  321,625;  323,725
358,428;  326,412;  322,445;  326,125
358,507;  327,852;  321,366;  325,105
358,585;  322,122;  320,355;  325,525
358,664;  334,902;  332,266;  334,505
358,743;  325,412;  323,776;  326,515
358,822;  338,212;  334,475;  338,195
358,901;  312,132;  309,176;  309,505
358,980;  317,432;  310,885;  313,735
359,059;  332,932;  328,616;  332,255
359,138;  333,782;  329,415;  328,565
359,216;  328,472;  322,225;  327,485
359,295;  313,952;  309,475;  309,515
359,374;  335,372;  330,026;  333,455
359,453;  321,222;  316,345;  320,885
359,532;  307,782;  304,526;  308,455
359,610;  323,872;  319,556;  323,285
359,689;  338,472;  331,116;  333,025
359,768;  320,602;  313,706;  315,305
359,847;  306,322;  302,065;  305,385
359,925;  309,032;  304,105;  307,215
360,004;  303,352;  299,565;  302,585
360,083;  321,602;  320,165;  321,795
360,161;  310,792;  305,676;  309,885
360,240;  291,432;  288,725;  291,455
360,319;  320,912;  318,276;  317,225
360,397;  328,852;  324,986;  331,265
360,476;  322,282;  318,296;  324,355
360,555;  348,352;  345,565;  346,835
360,633;  305,612;  304,456;  304,945
360,712;  313,122;  309,056;  311,825
360,790;  334,902;  330,065;  331,185
360,869;  315,812;  310,266;  313,085
360,948;  327,742;  322,466;  322,235
361,026;  303,762;  300,065;  301,245
361,105;  315,332;  306,116;  309,875
361,183;  328,832;  324,725;  326,345
361,262;  306,832;  302,375;  307,465
361,340;  310,882;  305,815;  306,875
361,419;  292,572;  289,896;  290,845
361,497;  345,982;  340,926;  346,955
361,576;  322,292;  317,736;  323,245
361,654;  345,542;  342,736;  343,615
361,733;  298,672;  297,366;  297,305
361,811;  330,802;  329,065;  331,875
361,890;  296,182;  292,595;  293,595
361,968;  319,522;  313,706;  316,715
362,046;  340,452;  335,296;  335,795
362,125;  341,402;  337,435;  340,865
362,203;  320,712;  314,635;  316,745
362,282;  335,802;  328,676;  334,675
362,360;  324,482;  318,315;  323,125
362,438;  321,222;  313,565;  317,495
362,517;  360,032;  357,725;  357,035
362,595;  343,822;  340,956;  345,025
362,673;  341,042;  334,576;  338,035
362,752;  332,882;  326,366;  329,445
362,830;  344,862;  343,155;  338,795
362,908;  324,112;  322,885;  326,315
362,986;  337,832;  333,595;  334,645
363,065;  333,632;  326,405;  330,985
363,143;  366,722;  359,875;  363,525
363,221;  325,572;  313,755;  319,675
363,299;  317,892;  315,845;  315,595
363,378;  333,232;  327,546;  328,495
363,456;  309,712;  304,326;  305,295
363,534;  332,392;  323,996;  327,895
363,612;  334,782;  327,546;  330,285
363,690;  346,392;  337,885;  341,915
363,769;  355,332;  349,336;  354,965
363,847;  340,362;  332,326;  333,935
363,925;  311,032;  303,095;  306,775
364,003;  358,412;  350,866;  351,845
364,081;  345,322;  336,345;  339,765
364,159;  341,392;  331,836;  334,695
364,237;  349,892;  341,276;  343,025
364,315;  332,862;  318,866;  320,765
364,393;  369,642;  350,935;  355,465
364,471;  345,992;  328,185;  329,975
364,549;  360,022;  333,026;  334,495
364,627;  361,952;  323,095;  327,065
364,705;  370,612;  311,135;  310,945
364,783;  441,792;  323,496;  332,235
364,861; 1010,012;  331,396;  334,915
364,939; 3542,302;  314,086;  319,855
365,017;  806,882;  306,046;  310,735
365,095;  378,272;  322,116;  324,495
365,173;  382,182;  345,556;  349,605
365,251;  388,102;  341,535;  344,665
365,329;  537,172;  346,466;  345,195
365,407; 1148,862;  318,345;  321,385
365,485;  472,102;  344,826;  348,395
365,563;  364,402;  344,306;  346,815
365,641;  335,882;  331,896;  331,005
365,719;  347,462;  337,095;  336,965
365,796;  345,582;  334,926;  336,075
365,874;  359,502;  347,426;  349,165
365,952;  320,782;  309,516;  312,925
366,030;  350,542;  334,866;  333,525
366,108;  367,012;  326,345;  328,575
366,185;  622,022;  338,396;  343,695
366,263;  870,142;  334,646;  340,035
366,341;  381,452;  334,125;  339,925
366,419;  345,342;  331,535;  331,355
366,496;  352,392;  342,655;  345,225
366,574;  332,182;  325,826;  329,315
366,652;  356,732;  345,296;  349,635
366,730;  370,312;  365,475;  368,065
366,807;  339,702;  330,845;  334,945
366,885;  333,642;  321,135;  327,175
366,963;  337,402;  329,016;  331,635
367,040;  354,282;  345,815;  352,465
367,118;  332,322;  321,875;  325,205
367,196;  348,002;  341,896;  344,715
367,273;  341,972;  335,845;  338,245
367,351;  332,142;  328,155;  331,125
367,428;  364,262;  355,016;  356,915
367,506;  338,922;  329,225;  333,905
367,584;  363,922;  360,216;  363,085
367,661;  347,502;  341,785;  346,585
367,739;  339,362;  328,466;  334,835
367,816;  331,272;  320,345;  324,175
367,894;  345,802;  339,146;  345,755
367,971;  336,822;  329,885;  333,335
368,049;  355,682;  349,586;  353,435
368,126;  322,842;  314,625;  317,265
368,204;  357,512;  351,836;  352,775
368,281;  358,372;  353,225;  355,775
368,359;  353,812;  348,806;  354,965
368,436;  351,422;  342,385;  348,785
368,514;  357,642;  349,646;  351,035
368,591;  349,492;  343,486;  348,405
368,668;  354,032;  347,486;  351,455
368,746;  362,002;  358,556;  362,125
368,823;  346,442;  342,405;  345,515
368,901;  343,082;  339,046;  341,025
368,978;  362,432;  354,975;  361,925
369,055;  348,602;  343,826;  347,145
369,133;  372,602;  367,046;  368,725
369,210;  341,352;  339,206;  342,185
369,287;  374,142;  367,986;  371,205
369,365;  373,782;  368,896;  369,715
369,442;  349,782;  346,826;  351,135
369,519;  311,632;  306,396;  310,475
369,596;  375,082;  369,005;  372,695
369,674;  340,222;  336,526;  336,705
369,751;  371,912;  368,005;  369,405
369,828;  353,782;  350,366;  351,255
369,905;  358,352;  354,796;  358,705
369,983;  333,192;  329,826;  336,485
370,060;  339,292;  335,185;  336,165
370,137;  375,612;  371,595;  373,975
370,214;  343,552;  340,246;  340,845
370,291;  354,062;  347,845;  351,965
370,368;  353,752;  345,426;  349,675
370,446;  338,482;  335,716;  337,375
370,523;  339,032;  331,586;  338,615
370,600;  358,472;  350,706;  356,355
370,677;  350,832;  345,826;  349,525
370,754;  344,842;  341,706;  344,655
370,831;  348,482;  344,885;  347,665
370,908;  373,462;  368,556;  369,945
370,985;  333,582;  326,206;  327,885
371,062;  350,962;  346,635;  347,955
371,139;  365,172;  362,125;  364,815
371,216;  363,812;  357,496;  359,475
371,293;  353,462;  350,576;  350,305
371,370;  334,642;  328,806;  332,395
371,447;  359,302;  354,736;  355,835
371,524;  375,462;  374,685;  378,505
371,601;  376,932;  371,556;  374,285
371,678;  374,702;  374,306;  375,345
371,755;  352,092;  348,526;  348,275
371,832;  375,402;  374,526;  377,175
371,909;  345,082;  342,065;  344,605
371,986;  386,292;  376,505;  379,065
372,063;  350,002;  346,195;  348,745
372,140;  358,972;  354,056;  357,495
372,216;  363,692;  360,225;  360,935
372,293;  345,662;  341,945;  344,805
372,370;  375,712;  370,236;  372,635
372,447;  363,932;  361,646;  361,385
372,524;  353,232;  349,725;  352,115
372,601;  355,832;  353,236;  356,005
372,677;  341,482;  339,586;  339,035
372,754;  353,362;  347,516;  350,955
372,831;  355,852;  354,716;  356,955
372,908;  371,772;  368,496;  364,795
372,984;  361,142;  349,246;  356,035
373,061;  345,972;  342,046;  342,845
373,138;  357,192;  349,986;  354,465
373,215;  345,982;  345,155;  346,585
373,291;  350,452;  347,556;  353,415
373,368;  358,122;  353,516;  357,375
373,445;  352,932;  348,285;  348,395
373,521;  353,112;  349,216;  353,935
373,598;  346,822;  341,766;  343,845
373,675;  336,702;  332,646;  334,115
373,751;  354,642;  345,375;  354,195
373,828;  348,592;  341,076;  346,375
373,904;  396,182;  387,225;  391,935
373,981;  335,402;  332,516;  333,585
374,057;  358,522;  353,306;  355,945
374,134;  334,922;  331,706;  334,435
374,211;  356,052;  348,826;  351,835
374,287;  340,642;  338,565;  339,035
374,364;  368,972;  362,426;  365,335
374,440;  325,552;  319,035;  321,205
374,517;  366,082;  361,625;  366,995
374,593;  328,812;  326,896;  326,865
374,670;  345,082;  340,095;  342,905
374,746;  350,882;  346,915;  349,135
374,823;  374,422;  369,255;  368,775
374,899;  367,182;  366,836;  366,475
374,975;  342,902;  336,035;  341,495
375,052;  331,172;  319,776;  326,175
375,128;  331,792;  325,956;  331,675
375,205;  356,522;  353,665;  355,605
375,281;  335,502;  337,296;  336,395
375,357;  366,192;  361,026;  364,245
375,434;  338,772;  331,986;  338,045
375,510;  354,612;  347,755;  353,175
375,586;  352,502;  347,486;  349,845
375,663;  325,982;  321,926;  323,515
375,739;  358,092;  355,716;  358,675
375,815;  349,222;  346,366;  346,765
375,892;  350,972;  344,516;  348,555
375,968;  340,302;  331,605;  336,855
376,044;  342,092;  335,866;  339,405
376,120;  340,002;  332,535;  339,615
376,197;  352,962;  348,466;  352,185
376,273;  344,562;  340,516;  341,095
376,349;  382,712;  378,366;  379,125
376,425;  366,142;  362,935;  364,425
376,501;  349,812;  344,225;  347,555
376,578;  360,702;  362,885;  363,255
376,654;  386,122;  383,866;  382,945
376,730;  364,992;  360,266;  364,005
376,806;  378,452;  375,185;  376,845
376,882;  379,042;  377,176;  378,355
376,958;  379,512;  376,706;  373,325
377,034;  322,002;  319,695;  317,895
377,111;  373,512;  368,826;  369,285
377,187;  394,872;  390,845;  391,825
377,263;  390,372;  383,885;  384,725
377,339;  350,492;  341,445;  346,375
377,415;  367,982;  366,366;  365,685
377,491;  348,322;  342,885;  347,505
377,567;  362,072;  359,755;  360,685
377,643;  381,872;  380,076;  378,785
377,719;  369,052;  363,706;  367,845
377,795;  353,512;  345,725;  349,165
377,871;  373,242;  367,866;  370,355
377,947;  352,952;  348,236;  351,215
378,023;  354,172;  345,855;  349,075
378,099;  352,382;  349,035;  350,465
378,174;  376,832;  374,176;  374,825
378,250;  366,452;  363,105;  366,955
378,326;  370,542;  366,255;  370,045
378,402;  362,522;  357,685;  360,315
378,478;  367,392;  361,605;  365,295
378,554;  375,682;  370,396;  375,075
378,630;  367,782;  365,225;  365,285
378,706;  364,592;  358,076;  357,335
378,781;  396,032;  390,875;  394,875
378,857;  369,202;  363,185;  366,505
378,933;  362,132;  360,315;  365,855
379,009;  352,382;  351,426;  351,035
379,085;  393,412;  393,826;  391,725
379,160;  380,672;  377,246;  378,485
379,236;  377,622;  374,195;  376,655
379,312;  365,932;  359,915;  361,725
379,387;  356,092;  354,486;  355,105
379,463;  366,302;  359,836;  363,685
379,539;  376,432;  370,475;  373,395
379,615;  361,542;  359,056;  358,495
379,690;  399,742;  395,035;  398,755
379,766;  381,782;  373,276;  379,335
379,842;  395,142;  391,105;  391,375
379,917;  386,782;  380,935;  388,225
379,993;  373,482;  368,366;  373,385
380,068;  362,812;  359,236;  361,755
380,144;  387,382;  381,086;  383,405
380,220;  387,962;  382,086;  386,535
380,295;  356,362;  353,005;  355,035
380,371;  363,042;  359,935;  361,545
380,446;  382,332;  377,165;  381,125
380,522;  350,082;  348,766;  349,425
380,597;  361,162;  360,486;  359,965
380,673;  399,372;  390,456;  394,425
380,748;  362,552;  358,046;  358,445
380,824;  372,702;  367,676;  369,935
380,899;  391,802;  386,216;  388,425
380,975;  367,902;  365,475;  366,905
381,050;  355,682;  352,806;  352,825
381,126;  375,562;  370,526;  373,695
381,201;  406,942;  398,806;  402,495
381,277;  373,532;  373,435;  374,795
381,352;  393,502;  388,105;  390,855
381,427;  380,832;  372,586;  376,025
381,503;  381,842;  378,896;  379,385
381,578;  367,022;  360,605;  365,515
381,653;  373,962;  368,776;  372,375
381,729;  366,832;  361,535;  360,945
381,804;  370,982;  367,475;  368,805
381,879;  386,182;  383,306;  386,055
381,955;  358,932;  354,396;  356,545
382,030;  359,042;  356,556;  357,225
382,105;  376,292;  375,586;  372,555
382,181;  371,982;  367,466;  371,255
382,256;  376,902;  378,116;  374,765
382,331;  371,822;  367,216;  371,745
382,406;  357,132;  353,266;  357,745
382,482;  363,322;  361,315;  357,655
382,557;  367,472;  363,526;  366,745
382,632;  377,732;  370,595;  371,585
382,707;  364,402;  361,135;  365,615
382,782;  370,462;  361,516;  366,275
382,857;  365,502;  358,996;  361,035
382,933;  355,632;  351,776;  352,995
383,008;  346,462;  344,065;  345,165
383,083;  381,172;  376,866;  379,215
383,158;  384,072;  378,866;  381,615
383,233;  364,302;  362,385;  363,105
383,308;  361,032;  359,875;  362,675
383,383;  391,472;  389,445;  391,785
383,458;  359,902;  361,135;  360,475
383,533;  349,302;  342,456;  344,625
383,608;  393,182;  387,885;  390,385
383,683;  391,242;  385,046;  389,585
383,758;  383,972;  380,285;  380,925
383,833;  372,012;  370,296;  371,015
383,908;  344,362;  343,206;  342,165
383,983;  349,112;  346,296;  350,755
384,058;  360,272;  355,246;  357,655
384,133;  371,662;  368,185;  368,575
384,208;  384,012;  376,796;  379,565
384,283;  352,042;  348,736;  351,825
384,358;  389,062;  381,845;  387,485
384,433;  356,772;  357,496;  357,355
384,508;  376,952;  368,966;  373,895
384,583;  376,452;  373,725;  375,265
384,658;  372,102;  367,915;  371,275
384,732;  340,092;  339,456;  339,705
384,807;  369,482;  366,935;  369,005
384,882;  373,662;  371,246;  373,145
384,957;  374,682;  368,095;  371,985
385,032;  376,602;  375,426;  376,555
385,106;  373,702;  370,216;  371,515
385,181;  357,612;  351,385;  357,155
385,256;  369,212;  363,565;  366,745
385,331;  375,582;  371,935;  373,255
385,405;  383,672;  380,975;  381,445
385,480;  367,352;  365,695;  366,715
385,555;  405,982;  399,306;  400,405
385,630;  396,062;  390,956;  395,935
385,704;  381,082;  374,056;  377,105
385,779;  367,822;  364,405;  364,855
385,854;  371,522;  368,746;  369,975
385,928;  363,852;  363,016;  365,315
386,003;  404,162;  402,586;  405,115
386,078;  375,382;  372,466;  374,995
386,152;  404,052;  401,456;  401,815
386,227;  361,192;  357,646;  361,225
386,301;  381,752;  378,725;  380,385
386,376;  355,562;  348,695;  355,015
386,450;  381,672;  378,616;  381,145
386,525;  375,002;  373,556;  377,655
386,600;  388,372;  385,746;  385,925
386,674;  370,362;  364,076;  367,315
386,749;  380,722;  375,095;  381,315
386,823;  384,152;  377,435;  382,095
386,898;  387,192;  379,766;  380,535
386,972;  390,142;  380,966;  385,985
387,047;  375,162;  369,776;  374,355
387,121;  383,582;  379,695;  380,335
387,195;  360,722;  357,875;  359,895
387,270;  387,252;  385,625;  385,415
387,344;  410,172;  404,405;  407,055
387,419;  393,762;  385,665;  393,195
387,493;  382,002;  377,776;  379,825
387,567;  360,232;  355,005;  358,475
387,642;  406,762;  403,586;  405,945
387,716;  376,322;  369,565;  372,245
387,790;  375,702;  367,706;  371,225
387,865;  374,492;  372,806;  373,715
387,939;  409,692;  403,005;  404,415
388,013;  387,952;  384,806;  386,145
388,088;  372,882;  368,655;  370,085
388,162;  373,032;  370,135;  371,835
388,236;  379,772;  372,456;  375,275
388,310;  366,012;  361,966;  364,475
388,385;  401,582;  397,185;  400,845
388,459;  379,662;  379,996;  380,235
388,533;  366,792;  363,676;  362,565
388,607;  369,302;  366,776;  365,955
388,682;  376,812;  374,806;  375,745
388,756;  361,272;  355,035;  360,825
388,830;  393,762;  390,255;  394,075
388,904;  386,672;  378,276;  385,365
388,978;  372,112;  369,535;  370,165
389,052;  377,242;  375,396;  377,225
389,126;  373,472;  370,435;  376,195
389,200;  377,562;  372,665;  377,205
389,275;  369,982;  369,266;  367,695
389,349;  376,502;  374,695;  373,065
389,423;  368,912;  369,565;  369,375
389,497;  382,872;  380,966;  383,775
389,571;  372,932;  368,665;  370,175
389,645;  381,572;  376,806;  379,805
389,719;  375,172;  369,396;  372,955
389,793;  349,962;  346,576;  348,725
389,867;  407,902;  398,035;  402,955
389,941;  379,752;  375,375;  377,215
390,015;  370,092;  361,135;  364,515
390,089;  366,412;  360,426;  362,085
390,163;  377,682;  372,456;  375,935
390,237;  379,222;  375,435;  379,295
390,310;  385,132;  379,276;  382,155
390,384;  384,082;  376,546;  383,625
390,458;  405,362;  400,826;  403,825
390,532;  390,282;  383,496;  386,725
390,606;  369,822;  365,945;  369,265
390,680;  374,582;  366,466;  368,115
390,754;  368,782;  366,385;  368,915
390,827;  391,212;  388,276;  392,645
390,901;  396,962;  391,855;  396,215
390,975;  373,872;  368,905;  370,295
391,049;  366,532;  366,366;  364,315
391,123;  364,552;  362,685;  363,545
391,196;  369,492;  367,635;  367,855
391,270;  378,902;  378,426;  377,835
391,344;  363,722;  360,056;  359,585
391,418;  372,712;  372,975;  372,155
391,491;  364,792;  362,655;  363,995
391,565;  365,482;  362,065;  366,105
391,639;  400,192;  394,345;  397,875
391,712;  387,452;  385,815;  384,375
391,786;  388,752;  382,646;  386,785
391,860;  371,672;  369,385;  370,925
391,933;  375,642;  369,935;  371,115
392,007;  376,262;  371,355;  380,875
392,081;  400,082;  396,456;  399,955
392,154;  383,412;  377,845;  383,895
392,228;  395,442;  391,366;  394,685
392,301;  382,102;  376,266;  381,275
392,375;  391,462;  386,076;  389,995
392,448;  383,792;  379,516;  384,445
392,522;  381,922;  376,236;  379,965
392,595;  378,712;  370,105;  374,245
392,669;  379,242;  376,116;  379,675
392,742;  396,772;  390,975;  396,915
392,816;  400,742;  397,296;  400,205
392,889;  396,592;  392,746;  396,605
392,963;  413,492;  409,095;  409,745
393,036;  386,002;  385,345;  386,785
393,110;  398,912;  391,155;  393,885
393,183;  406,922;  400,836;  405,685
393,257;  420,102;  415,456;  417,745
393,330;  372,102;  365,845;  369,745
393,403;  395,212;  390,486;  395,585
393,477;  359,342;  355,845;  358,875
393,550;  393,192;  390,306;  395,545
393,623;  390,372;  388,396;  388,295
393,697;  407,172;  406,056;  406,835
393,770;  382,512;  376,556;  379,065
393,843;  406,682;  402,996;  406,915
393,917;  399,282;  394,216;  398,485
393,990;  413,032;  409,996;  410,125
394,063;  395,592;  386,855;  392,225
394,136;  394,682;  388,635;  391,675
394,210;  397,252;  393,336;  395,655
394,283;  407,812;  402,785;  407,175
394,356;  398,952;  399,165;  399,175
394,429;  401,952;  396,935;  398,825
394,502;  387,872;  382,016;  383,895
394,576;  421,162;  414,125;  414,715
394,649;  382,622;  378,776;  377,865
394,722;  406,302;  400,896;  403,785
394,795;  412,352;  408,306;  413,185
394,868;  385,042;  384,135;  385,985
394,941;  376,892;  376,435;  375,265
395,014;  420,732;  417,056;  420,205
395,088;  403,322;  398,956;  399,175
395,161;  397,772;  395,466;  398,685
395,234;  412,022;  409,236;  410,735
395,307;  405,072;  402,236;  405,525
395,380;  386,142;  384,736;  385,325
395,453;  436,952;  436,845;  437,285
395,526;  413,632;  408,385;  412,495
395,599;  432,902;  426,926;  430,645
395,672;  400,472;  394,586;  394,895
395,745;  421,122;  417,125;  421,075
395,818;  381,982;  376,306;  378,615
395,891;  388,742;  385,635;  387,695
395,964;  419,972;  415,896;  414,885
396,036;  390,362;  387,486;  384,175
396,109;  398,002;  392,076;  395,785
396,182;  398,312;  396,766;  399,545
396,255;  396,892;  399,225;  398,845
396,328;  412,092;  410,065;  411,075
396,401;  371,892;  370,746;  371,295
396,474;  386,562;  381,086;  381,505
396,547;  401,612;  397,046;  400,645
396,619;  396,182;  390,755;  390,525
396,692;  412,162;  404,866;  411,355
396,765;  374,222;  370,616;  372,985
396,838;  389,052;  388,225;  388,295
396,911;  374,832;  371,266;  373,155
396,983;  395,192;  392,496;  392,385
397,056;  374,012;  372,355;  374,095
397,129;  391,302;  387,796;  389,615
397,201;  392,442;  391,556;  389,605
397,274;  393,442;  385,366;  389,335
397,347;  366,752;  363,345;  363,665
397,420;  389,202;  384,605;  387,195
397,492;  392,532;  388,296;  388,685
397,565;  382,072;  375,915;  379,595
397,637;  375,642;  369,366;  372,085
397,710;  356,222;  351,586;  350,295
397,783;  416,142;  412,855;  414,805
397,855;  352,172;  345,345;  347,055
397,928;  371,152;  368,336;  371,095
398,000;  403,262;  395,866;  396,635
398,073;  388,332;  386,546;  384,745
398,146;  379,062;  376,706;  377,295
398,218;  399,452;  390,255;  393,135
398,291;  389,922;  385,806;  387,915
398,363;  383,172;  381,755;  384,505
398,436;  376,732;  369,855;  374,675
398,508;  384,432;  383,266;  385,345
398,581;  381,512;  378,206;  380,565
398,653;  376,262;  374,255;  373,825
398,726;  380,672;  378,535;  383,385
398,798;  390,472;  383,306;  387,885
398,870;  399,872;  391,116;  396,905
398,943;  369,252;  366,236;  369,775
399,015;  368,242;  365,676;  368,815
399,088;  392,852;  389,655;  388,435
399,160;  370,862;  368,076;  368,815
399,232;  356,002;  350,405;  352,095
399,305;  374,092;  368,435;  372,935
399,377;  382,832;  377,905;  377,535
399,449;  390,152;  386,246;  388,735
399,522;  427,612;  421,875;  424,965
399,594;  370,002;  364,576;  365,315
399,666;  390,382;  382,625;  385,235
399,738;  375,472;  373,336;  375,225
399,811;  381,492;  376,736;  377,025
399,883;  391,252;  386,105;  388,295
399,955;  395,152;  389,855;  389,195
400,027;  345,842;  345,945;  349,545
400,100;  409,712;  407,366;  409,275
400,172;  353,262;  348,296;  349,645
400,244;  380,912;  378,225;  381,195
400,316;  396,802;  393,016;  393,505
400,388;  389,662;  389,385;  393,005
400,460;  365,992;  359,306;  364,605
400,532;  353,702;  350,826;  351,835
400,605;  383,312;  377,736;  384,975
400,677;  404,582;  402,285;  404,675
400,749;  396,192;  395,685;  398,125
400,821;  388,542;  385,956;  388,105
400,893;  382,162;  379,445;  382,305
400,965;  391,852;  386,755;  392,785
401,037;  390,072;  387,565;  392,525
401,109;  375,442;  370,725;  373,835
401,181;  383,312;  380,716;  385,485

