pru
Integration time [ms]:   0,150
Averaging Nr. [scans]: 30
Smoothing Nr. [pixels]: 0
Data measured with spectrometer [name]: 7416147SP
Wave   ;Sample   ;Dark     ;Reference
[nm]   ;[counts] ;[counts] ;[counts] 

230,218;  295,680;  290,315;  293,845
230,311;  323,047;  319,885;  318,565
230,404;  310,713;  309,855;  312,875
230,497;  314,413;  317,385;  315,715
230,591;  335,613;  333,426;  335,355
230,684;  333,880;  326,486;  329,355
230,777;  316,880;  311,736;  314,765
230,870;  312,647;  313,326;  316,955
230,964;  311,180;  310,885;  314,745
231,057;  346,247;  342,496;  343,475
231,150;  338,580;  331,695;  332,715
231,243;  332,113;  330,635;  332,775
231,336;  328,713;  331,375;  331,335
231,430;  317,847;  316,496;  317,715
231,523;  326,480;  324,516;  326,785
231,616;  309,213;  305,445;  309,685
231,709;  343,380;  328,065;  330,025
231,802;  310,113;  300,945;  301,885
231,895;  315,580;  299,836;  300,315
231,988;  325,247;  315,655;  318,535
232,082;  318,013;  298,155;  302,425
232,175;  313,413;  302,155;  306,175
232,268;  315,447;  301,266;  305,345
232,361;  317,613;  304,806;  307,515
232,454;  334,113;  322,396;  323,025
232,547;  340,747;  318,716;  322,655
232,640;  307,780;  296,766;  294,035
232,733;  334,513;  314,116;  323,045
232,826;  307,813;  288,915;  295,035
232,919;  330,313;  313,826;  312,665
233,012;  306,847;  293,646;  292,775
233,105;  313,847;  294,766;  298,815
233,199;  319,413;  299,875;  304,045
233,292;  310,147;  293,475;  296,235
233,385;  273,547;  263,426;  262,225
233,478;  312,080;  293,885;  295,685
233,571;  339,713;  324,586;  327,675
233,664;  321,713;  305,996;  308,435
233,757;  295,213;  280,796;  281,395
233,850;  296,047;  282,255;  285,825
233,943;  306,380;  290,896;  292,195
234,035;  312,147;  300,576;  302,355
234,128;  293,647;  281,836;  283,945
234,221;  310,180;  297,665;  298,245
234,314;  329,547;  304,915;  311,975
234,407;  320,480;  302,935;  309,075
234,500;  299,113;  277,625;  281,875
234,593;  305,247;  287,095;  285,735
234,686;  309,847;  293,746;  293,765
234,779;  305,480;  291,266;  293,165
234,872;  291,947;  281,806;  281,565
234,965;  311,947;  292,806;  290,795
235,058;  291,547;  274,155;  276,215
235,150;  300,313;  285,776;  290,805
235,243;  297,513;  282,736;  284,425
235,336;  317,513;  300,695;  304,545
235,429;  285,980;  273,646;  272,515
235,522;  344,680;  330,996;  335,445
235,615;  281,847;  262,276;  265,145
235,707;  292,980;  282,415;  282,335
235,800;  302,880;  289,815;  290,515
235,893;  303,813;  289,956;  292,955
235,986;  308,347;  298,266;  299,325
236,079;  306,147;  286,586;  291,125
236,171;  290,480;  270,725;  271,865
236,264;  326,813;  312,635;  313,275
236,357;  304,413;  290,986;  293,865
236,450;  324,913;  315,225;  317,215
236,542;  285,347;  267,065;  272,575
236,635;  331,580;  313,546;  316,385
236,728;  299,713;  285,516;  288,115
236,821;  297,047;  280,165;  283,715
236,913;  283,647;  277,896;  276,315
237,006;  286,047;  271,605;  275,435
237,099;  296,880;  283,896;  285,575
237,191;  316,780;  298,796;  300,225
237,284;  282,713;  267,896;  272,995
237,377;  312,113;  294,725;  297,495
237,470;  296,947;  285,415;  287,875
237,562;  294,847;  276,866;  275,785
237,655;  341,747;  320,945;  324,565
237,747;  312,347;  292,695;  295,845
237,840;  330,680;  313,086;  314,435
237,933;  316,447;  300,445;  301,555
238,025;  316,980;  301,415;  301,595
238,118;  295,613;  282,456;  287,755
238,211;  280,080;  268,155;  272,375
238,303;  283,547;  272,296;  273,415
238,396;  287,880;  268,065;  271,945
238,488;  301,513;  292,625;  291,075
238,581;  302,547;  287,855;  289,445
238,673;  301,380;  285,766;  286,865
238,766;  295,080;  282,635;  283,185
238,859;  288,713;  273,586;  276,105
238,951;  301,547;  281,095;  282,835
239,044;  287,347;  276,496;  279,525
239,136;  284,113;  269,035;  271,705
239,229;  289,080;  280,665;  283,435
239,321;  290,280;  271,255;  276,105
239,414;  305,313;  289,875;  292,345
239,506;  298,113;  284,625;  290,655
239,599;  327,747;  316,315;  315,935
239,691;  302,247;  287,945;  287,755
239,784;  318,013;  301,926;  304,175
239,876;  306,380;  295,005;  294,715
239,969;  300,380;  284,426;  288,635
240,061;  286,447;  269,505;  272,655
240,153;  293,613;  276,776;  278,405
240,246;  302,913;  287,635;  287,925
240,338;  325,647;  315,285;  314,405
240,431;  285,547;  268,896;  270,455
240,523;  285,247;  269,315;  270,665
240,615;  313,480;  299,086;  301,495
240,708;  328,047;  309,945;  312,145
240,800;  300,113;  286,956;  289,175
240,893;  289,980;  272,216;  274,965
240,985;  303,847;  286,116;  289,995
241,077;  281,147;  269,866;  271,905
241,170;  316,880;  300,355;  300,805
241,262;  302,080;  293,695;  290,825
241,354;  268,080;  252,305;  253,985
241,447;  298,213;  281,326;  283,905
241,539;  284,047;  266,746;  270,745
241,631;  335,347;  314,366;  317,275
241,724;  276,747;  259,135;  260,655
241,816;  297,313;  279,385;  281,545
241,908;  294,847;  275,056;  280,445
242,000;  293,747;  277,625;  279,505
242,093;  302,913;  277,725;  280,745
242,185;  293,247;  277,736;  277,535
242,277;  292,147;  274,695;  277,115
242,369;  302,080;  282,146;  286,335
242,462;  289,480;  274,405;  274,215
242,554;  296,480;  277,146;  281,105
242,646;  298,113;  283,146;  286,575
242,738;  320,713;  303,255;  307,195
242,830;  272,947;  259,026;  260,415
242,923;  313,513;  297,035;  299,015
243,015;  285,680;  268,655;  266,675
243,107;  286,780;  267,676;  271,255
243,199;  300,780;  276,345;  278,365
243,291;  288,713;  272,125;  276,215
243,383;  267,147;  254,826;  256,465
243,476;  283,013;  269,435;  268,005
243,568;  298,247;  280,915;  284,885
243,660;  289,280;  273,385;  279,575
243,752;  295,547;  279,796;  287,275
243,844;  310,413;  300,766;  302,705
243,936;  306,513;  291,956;  293,555
244,028;  318,947;  304,796;  307,475
244,120;  263,147;  254,346;  255,525
244,212;  310,680;  293,826;  293,755
244,305;  274,813;  268,496;  267,935
244,397;  305,313;  289,165;  291,675
244,489;  317,047;  304,276;  307,925
244,581;  313,013;  299,255;  300,795
244,673;  296,847;  281,806;  283,225
244,765;  300,780;  286,035;  290,565
244,857;  299,880;  284,986;  287,335
244,949;  306,147;  283,956;  284,945
245,041;  264,713;  250,865;  255,005
245,133;  309,313;  293,695;  296,625
245,225;  294,480;  277,915;  280,695
245,317;  303,913;  289,456;  289,025
245,409;  282,847;  263,755;  269,375
245,501;  299,980;  288,496;  293,045
245,593;  302,480;  286,255;  290,055
245,685;  299,413;  285,405;  288,735
245,776;  298,813;  285,945;  287,235
245,868;  279,913;  271,276;  272,565
245,960;  273,780;  265,875;  263,405
246,052;  320,280;  310,766;  310,445
246,144;  304,413;  294,165;  294,205
246,236;  294,913;  283,576;  283,565
246,328;  297,947;  291,345;  293,965
246,420;  292,780;  279,746;  280,855
246,512;  322,580;  308,236;  310,455
246,604;  300,347;  282,526;  286,825
246,695;  283,480;  273,345;  272,135
246,787;  308,547;  293,526;  301,145
246,879;  303,480;  292,716;  297,145
246,971;  315,780;  299,276;  300,965
247,063;  291,613;  273,255;  278,605
247,155;  310,847;  294,516;  297,195
247,246;  298,680;  283,266;  283,715
247,338;  301,547;  288,116;  294,265
247,430;  321,413;  299,945;  303,475
247,522;  308,180;  297,546;  300,555
247,613;  312,580;  296,586;  299,675
247,705;  307,847;  286,896;  288,445
247,797;  329,780;  305,776;  307,475
247,889;  321,513;  294,706;  295,475
247,980;  321,847;  285,676;  291,995
248,072;  337,147;  282,845;  285,895
248,164;  350,980;  293,216;  298,385
248,256;  303,013;  271,366;  274,105
248,347;  327,147;  309,785;  311,065
248,439;  295,447;  283,165;  282,675
248,531;  323,747;  303,885;  304,835
248,622;  324,613;  307,206;  308,325
248,714;  298,647;  276,945;  278,365
248,806;  311,047;  293,655;  298,015
248,897;  309,013;  291,535;  292,985
248,989;  281,313;  263,956;  263,855
249,081;  296,480;  283,355;  284,905
249,172;  310,780;  289,926;  295,135
249,264;  283,247;  272,076;  273,435
249,356;  289,747;  269,326;  273,745
249,447;  297,180;  282,176;  284,525
249,539;  301,113;  283,086;  284,645
249,630;  312,780;  289,875;  288,495
249,722;  336,913;  313,276;  315,395
249,813;  303,747;  280,496;  284,125
249,905;  308,080;  289,426;  293,665
249,997;  300,947;  281,445;  280,615
250,088;  299,447;  282,255;  288,985
250,180;  301,480;  283,695;  284,575
250,271;  301,180;  281,195;  280,335
250,363;  341,013;  319,105;  320,755
250,454;  295,747;  273,035;  275,615
250,546;  313,947;  285,926;  289,415
250,637;  289,547;  264,445;  261,845
250,729;  291,547;  266,505;  269,555
250,820;  310,247;  289,915;  292,965
250,912;  291,347;  262,355;  267,085
251,003;  312,280;  278,396;  280,475
251,095;  308,580;  282,086;  284,555
251,186;  294,513;  271,415;  274,775
251,277;  305,213;  271,986;  275,265
251,369;  306,213;  275,975;  275,105
251,460;  301,413;  271,456;  273,815
251,552;  313,813;  278,475;  279,655
251,643;  304,780;  268,796;  267,375
251,735;  308,947;  265,246;  267,375
251,826;  297,180;  258,016;  263,245
251,917;  329,447;  278,035;  279,115
252,009;  326,047;  273,396;  275,605
252,100;  328,847;  281,426;  283,345
252,191;  348,613;  289,996;  292,015
252,283;  343,913;  265,095;  267,705
252,374;  371,647;  278,296;  278,375
252,465;  395,080;  295,405;  298,605
252,557;  384,847;  283,576;  286,365
252,648;  389,747;  265,146;  268,635
252,739;  417,347;  280,516;  282,125
252,831;  415,847;  270,836;  280,355
252,922;  450,613;  282,296;  280,045
253,013;  509,747;  273,956;  284,285
253,104;  561,213;  270,076;  270,335
253,196;  663,047;  271,366;  271,175
253,287;  829,413;  281,836;  277,135
253,378; 1194,380;  276,276;  277,975
253,469; 3721,847;  272,385;  276,445
253,561;20842,480;  273,496;  278,855
253,652;41411,047;  282,266;  280,015
253,743; 6543,280;  276,216;  280,985
253,834;  617,913;  259,146;  265,875
253,926;  501,480;  262,605;  267,485
254,017;  478,780;  284,236;  290,235
254,108;  455,080;  291,836;  290,565
254,199;  432,313;  285,326;  291,185
254,290;  442,747;  312,725;  313,865
254,381;  412,547;  287,076;  291,155
254,472;  414,547;  291,935;  300,495
254,564;  409,747;  312,766;  307,565
254,655;  394,713;  304,755;  308,105
254,746;  345,547;  264,896;  264,025
254,837;  387,080;  293,105;  298,435
254,928;  363,080;  266,836;  271,975
255,019;  366,747;  283,505;  286,805
255,110;  371,047;  300,165;  301,665
255,201;  349,980;  281,155;  287,655
255,292;  378,747;  312,706;  316,275
255,383;  348,380;  275,785;  275,725
255,474;  341,480;  273,306;  273,095
255,566;  349,080;  283,926;  286,645
255,657;  347,413;  298,556;  302,445
255,748;  315,447;  271,415;  278,125
255,839;  326,447;  280,695;  282,485
255,930;  329,247;  287,866;  289,735
256,021;  341,647;  298,845;  298,115
256,112;  320,913;  278,456;  278,735
256,203;  352,980;  311,866;  313,365
256,294;  327,847;  293,496;  299,575
256,384;  310,480;  270,565;  275,715
256,475;  324,113;  290,996;  294,595
256,566;  312,813;  281,246;  287,825
256,657;  303,380;  278,945;  278,915
256,748;  298,680;  281,285;  284,675
256,839;  296,813;  274,426;  273,555
256,930;  303,713;  279,165;  283,055
257,021;  326,280;  304,155;  306,465
257,112;  327,980;  304,926;  309,235
257,203;  280,380;  258,445;  259,825
257,294;  276,947;  254,465;  262,175
257,385;  306,947;  288,526;  294,205
257,475;  291,513;  279,135;  278,545
257,566;  313,413;  287,586;  292,255
257,657;  289,313;  269,595;  270,025
257,748;  293,647;  275,935;  276,095
257,839;  296,580;  287,915;  286,025
257,930;  303,313;  285,736;  290,395
258,020;  287,680;  269,716;  271,535
258,111;  280,880;  262,225;  263,255
258,202;  303,947;  288,326;  289,935
258,293;  304,480;  284,655;  285,305
258,384;  327,113;  305,595;  307,665
258,474;  301,880;  288,676;  291,995
258,565;  288,913;  271,635;  273,435
258,656;  303,713;  292,966;  295,145
258,747;  286,313;  271,475;  275,425
258,837;  288,680;  274,246;  273,695
258,928;  290,347;  275,785;  278,605
259,019;  283,813;  268,415;  270,595
259,109;  286,113;  269,685;  269,425
259,200;  301,747;  286,105;  289,815
259,291;  282,747;  269,975;  271,655
259,381;  302,513;  293,026;  295,635
259,472;  306,280;  295,796;  296,545
259,563;  313,547;  303,065;  305,845
259,653;  293,647;  278,296;  281,385
259,744;  279,547;  268,826;  267,735
259,835;  311,980;  300,975;  302,815
259,925;  290,880;  271,505;  277,075
260,016;  300,847;  286,746;  287,585
260,107;  270,980;  258,035;  264,715
260,197;  296,913;  283,975;  286,325
260,288;  286,280;  274,565;  279,155
260,378;  280,380;  267,195;  271,275
260,469;  295,347;  285,915;  288,765
260,560;  275,047;  266,146;  269,495
260,650;  284,013;  271,736;  275,665
260,741;  285,180;  276,366;  279,035
260,831;  281,980;  272,855;  275,905
260,922;  280,047;  266,206;  269,545
261,012;  278,380;  277,665;  278,255
261,103;  310,047;  301,785;  302,875
261,193;  309,213;  302,086;  303,915
261,284;  275,013;  271,806;  273,005
261,374;  303,813;  296,385;  303,855
261,465;  297,080;  287,755;  289,435
261,555;  289,347;  282,255;  280,715
261,646;  300,280;  292,475;  294,375
261,736;  292,880;  287,435;  290,535
261,827;  292,580;  283,716;  284,935
261,917;  315,380;  311,736;  311,595
262,007;  294,713;  283,986;  288,075
262,098;  297,813;  289,445;  287,725
262,188;  339,513;  326,655;  333,475
262,279;  304,313;  300,185;  299,795
262,369;  298,213;  286,285;  289,225
262,459;  296,513;  288,246;  290,365
262,550;  311,580;  303,266;  301,565
262,640;  281,113;  273,005;  276,555
262,731;  298,980;  300,935;  299,335
262,821;  312,347;  310,535;  312,255
262,911;  306,847;  297,875;  298,285
263,002;  302,213;  289,625;  290,825
263,092;  311,347;  303,956;  306,295
263,182;  291,847;  284,806;  285,755
263,273;  294,313;  285,426;  289,395
263,363;  306,113;  300,746;  299,385
263,453;  271,080;  267,375;  268,605
263,543;  300,547;  289,815;  289,615
263,634;  271,680;  266,516;  266,365
263,724;  300,147;  292,586;  293,065
263,814;  320,847;  308,706;  308,885
263,904;  287,980;  281,966;  285,905
263,995;  329,980;  322,276;  322,325
264,085;  300,380;  295,855;  294,575
264,175;  304,347;  296,706;  296,385
264,265;  328,747;  321,105;  321,865
264,356;  279,013;  270,466;  274,385
264,446;  313,480;  308,996;  307,575
264,536;  300,813;  294,026;  297,515
264,626;  324,980;  318,486;  320,175
264,716;  309,947;  298,435;  303,275
264,806;  319,713;  308,776;  310,415
264,897;  268,747;  258,135;  258,615
264,987;  314,447;  303,535;  304,475
265,077;  313,147;  287,046;  292,545
265,167;  373,613;  310,216;  311,575
265,257;  336,913;  290,445;  290,535
265,347;  334,180;  294,336;  295,795
265,437;  323,180;  296,176;  300,635
265,527;  315,913;  293,155;  294,765
265,617;  291,647;  279,875;  285,145
265,708;  324,613;  314,216;  314,825
265,798;  310,913;  305,415;  307,055
265,888;  309,380;  300,716;  305,545
265,978;  293,647;  294,496;  295,825
266,068;  316,480;  310,155;  315,855
266,158;  298,180;  294,005;  297,205
266,248;  280,247;  274,016;  276,865
266,338;  320,913;  313,035;  314,815
266,428;  307,613;  300,635;  302,655
266,518;  320,680;  311,405;  315,615
266,608;  300,847;  299,725;  294,215
266,698;  278,413;  273,586;  276,245
266,788;  282,513;  274,456;  277,745
266,878;  333,047;  325,776;  330,865
266,968;  314,180;  306,725;  309,425
267,058;  303,247;  297,375;  302,895
267,147;  307,880;  301,845;  302,905
267,237;  302,880;  291,815;  295,765
267,327;  295,913;  286,755;  287,895
267,417;  306,580;  301,225;  303,385
267,507;  301,813;  292,176;  294,215
267,597;  289,547;  282,026;  283,655
267,687;  291,513;  285,165;  287,755
267,777;  291,413;  283,986;  284,615
267,867;  313,947;  312,125;  312,585
267,956;  311,380;  302,466;  304,005
268,046;  312,713;  305,466;  310,865
268,136;  305,813;  296,875;  298,905
268,226;  284,413;  274,885;  274,965
268,316;  286,847;  280,766;  280,845
268,406;  297,513;  289,516;  287,595
268,495;  291,247;  284,415;  287,935
268,585;  312,013;  306,716;  309,605
268,675;  288,947;  284,336;  285,535
268,765;  307,447;  296,355;  300,115
268,854;  291,480;  285,935;  286,715
268,944;  297,247;  291,646;  293,805
269,034;  291,747;  283,986;  289,715
269,124;  292,047;  287,216;  290,705
269,213;  288,580;  286,336;  285,525
269,303;  287,680;  290,466;  288,585
269,393;  305,713;  299,845;  298,345
269,483;  308,880;  300,966;  302,735
269,572;  287,313;  282,875;  284,665
269,662;  286,080;  276,105;  283,315
269,752;  325,213;  312,736;  315,705
269,841;  278,480;  266,046;  269,455
269,931;  291,280;  281,586;  283,075
270,021;  304,047;  300,766;  304,675
270,110;  291,947;  285,695;  288,925
270,200;  302,647;  291,665;  299,445
270,289;  281,947;  280,785;  281,105
270,379;  306,580;  301,466;  302,775
270,469;  298,913;  290,556;  289,955
270,558;  308,713;  303,655;  302,185
270,648;  292,447;  282,785;  284,885
270,737;  296,480;  288,526;  291,525
270,827;  316,147;  310,185;  313,455
270,916;  297,113;  286,935;  289,915
271,006;  297,047;  293,475;  292,885
271,096;  320,380;  317,005;  317,215
271,185;  290,147;  289,896;  289,145
271,275;  307,147;  300,706;  303,575
271,364;  282,880;  281,535;  285,725
271,454;  314,447;  308,255;  315,275
271,543;  299,247;  296,935;  297,745
271,633;  298,313;  293,926;  292,835
271,722;  301,413;  292,255;  296,455
271,812;  295,580;  286,296;  289,275
271,901;  297,213;  292,326;  293,765
271,990;  299,447;  291,836;  290,915
272,080;  299,747;  290,635;  294,915
272,169;  304,647;  301,905;  302,555
272,259;  293,913;  293,225;  292,695
272,348;  308,980;  305,796;  308,535
272,438;  300,813;  296,935;  293,635
272,527;  314,447;  303,996;  304,365
272,616;  309,413;  301,866;  305,295
272,706;  334,580;  320,935;  323,195
272,795;  312,580;  314,076;  315,755
272,884;  304,280;  297,076;  299,515
272,974;  329,047;  317,975;  319,965
273,063;  346,447;  338,206;  337,765
273,152;  307,780;  310,306;  307,735
273,242;  326,180;  320,276;  324,915
273,331;  325,047;  319,315;  322,835
273,420;  307,713;  301,105;  310,255
273,510;  311,447;  307,355;  308,155
273,599;  316,980;  303,255;  306,195
273,688;  310,713;  302,605;  301,885
273,778;  292,813;  285,065;  287,095
273,867;  324,113;  320,266;  317,015
273,956;  308,780;  303,725;  303,805
274,045;  271,447;  273,966;  275,965
274,135;  307,113;  303,905;  305,375
274,224;  295,347;  286,516;  290,045
274,313;  313,180;  305,586;  307,745
274,402;  285,980;  284,796;  287,085
274,491;  313,547;  310,975;  312,995
274,581;  306,913;  301,415;  302,765
274,670;  294,513;  293,146;  294,385
274,759;  308,880;  299,405;  300,435
274,848;  280,747;  276,655;  279,925
274,937;  293,880;  289,945;  287,635
275,026;  292,613;  285,616;  287,835
275,116;  331,913;  316,415;  315,805
275,205;  296,280;  266,926;  271,135
275,294;  330,413;  302,315;  304,335
275,383;  306,147;  299,905;  297,985
275,472;  297,347;  290,005;  290,825
275,561;  299,147;  290,505;  290,285
275,650;  316,213;  306,046;  306,435
275,739;  296,513;  294,776;  297,985
275,828;  276,080;  274,635;  277,965
275,917;  314,480;  312,065;  306,825
276,006;  307,513;  295,426;  296,835
276,095;  298,613;  294,526;  298,665
276,184;  315,180;  309,556;  307,945
276,273;  310,013;  303,105;  304,505
276,362;  284,280;  275,896;  278,535
276,451;  295,413;  291,306;  291,915
276,540;  301,347;  295,896;  296,105
276,629;  300,413;  292,576;  293,225
276,718;  270,947;  270,695;  274,545
276,807;  278,980;  271,625;  274,825
276,896;  287,447;  280,526;  284,495
276,985;  291,147;  283,616;  289,365
277,074;  303,713;  299,105;  300,525
277,163;  297,547;  294,746;  299,085
277,252;  278,747;  279,646;  276,465
277,341;  291,580;  281,236;  289,265
277,430;  277,280;  276,845;  279,355
277,519;  305,547;  298,956;  301,695
277,608;  271,080;  266,546;  267,775
277,696;  273,380;  266,975;  269,445
277,785;  286,880;  284,095;  283,485
277,874;  308,213;  299,605;  296,795
277,963;  290,080;  288,155;  289,995
278,052;  269,680;  264,776;  265,525
278,141;  295,113;  288,415;  290,745
278,229;  295,313;  290,146;  291,935
278,318;  269,213;  268,236;  271,495
278,407;  291,113;  285,576;  285,935
278,496;  290,413;  289,915;  291,965
278,585;  306,080;  300,486;  302,275
278,673;  273,013;  263,836;  266,715
278,762;  278,980;  266,176;  270,485
278,851;  295,980;  285,496;  286,035
278,940;  309,013;  303,685;  303,305
279,028;  302,813;  296,306;  299,585
279,117;  292,780;  282,725;  286,655
279,206;  286,413;  279,475;  284,105
279,294;  286,013;  284,396;  286,665
279,383;  290,347;  286,646;  287,335
279,472;  304,747;  298,095;  298,295
279,561;  287,513;  283,355;  284,975
279,649;  317,580;  308,535;  308,935
279,738;  266,413;  255,566;  255,215
279,827;  315,613;  306,785;  308,805
279,915;  281,913;  275,285;  276,335
280,004;  295,880;  286,565;  288,905
280,092;  316,113;  305,236;  306,635
280,181;  289,980;  280,516;  282,605
280,270;  293,147;  277,866;  281,595
280,358;  309,880;  291,366;  288,915
280,447;  275,980;  261,415;  264,455
280,535;  286,680;  276,016;  275,945
280,624;  285,847;  274,185;  276,805
280,713;  282,647;  277,146;  283,385
280,801;  293,913;  293,116;  293,805
280,890;  297,080;  289,716;  295,475
280,978;  288,047;  280,755;  281,945
281,067;  254,480;  250,676;  255,865
281,155;  278,613;  274,855;  275,705
281,244;  325,147;  313,595;  316,445
281,332;  301,113;  290,845;  293,825
281,421;  286,480;  271,605;  273,675
281,509;  290,580;  284,646;  282,415
281,598;  270,780;  262,435;  263,765
281,686;  298,147;  290,776;  288,945
281,775;  296,713;  285,516;  290,815
281,863;  284,347;  278,016;  279,225
281,951;  280,947;  267,665;  270,735
282,040;  314,247;  300,315;  301,115
282,128;  302,747;  288,375;  294,235
282,217;  275,413;  265,926;  266,075
282,305;  305,313;  294,796;  294,045
282,393;  293,480;  286,505;  284,595
282,482;  290,613;  279,535;  283,255
282,570;  276,380;  266,945;  270,215
282,658;  288,547;  276,116;  277,715
282,747;  280,847;  265,026;  267,905
282,835;  319,980;  306,076;  309,035
282,923;  273,480;  264,655;  267,805
283,012;  300,713;  291,366;  296,345
283,100;  273,013;  269,185;  274,675
283,188;  267,047;  261,125;  262,525
283,277;  285,180;  284,336;  284,745
283,365;  285,013;  271,676;  278,375
283,453;  271,380;  264,755;  270,455
283,542;  300,213;  290,896;  293,765
283,630;  283,747;  276,195;  278,595
283,718;  278,147;  271,195;  274,365
283,806;  245,780;  241,706;  247,485
283,894;  283,213;  274,336;  274,395
283,983;  288,747;  282,165;  282,605
284,071;  292,347;  285,285;  291,495
284,159;  312,613;  309,125;  314,805
284,247;  293,747;  287,466;  288,555
284,335;  291,147;  286,935;  287,485
284,424;  288,547;  283,915;  288,465
284,512;  287,413;  283,475;  286,175
284,600;  283,413;  279,415;  280,145
284,688;  317,580;  312,815;  317,115
284,776;  289,547;  286,815;  287,745
284,864;  306,547;  302,125;  308,655
284,952;  293,747;  289,625;  289,025
285,041;  304,580;  298,255;  298,145
285,129;  306,047;  299,435;  302,445
285,217;  308,747;  300,056;  303,885
285,305;  320,813;  318,676;  319,885
285,393;  279,347;  275,776;  278,695
285,481;  300,380;  296,665;  298,405
285,569;  289,347;  282,966;  285,145
285,657;  302,580;  295,165;  296,255
285,745;  298,447;  292,655;  293,125
285,833;  297,747;  289,505;  293,165
285,921;  304,547;  298,116;  300,945
286,009;  310,713;  301,105;  303,655
286,097;  298,613;  298,236;  301,315
286,185;  288,213;  284,405;  284,795
286,273;  284,880;  283,415;  284,655
286,361;  316,080;  307,915;  311,825
286,449;  299,613;  296,195;  294,565
286,537;  307,213;  304,105;  302,085
286,625;  295,647;  291,185;  293,415
286,713;  285,680;  275,806;  280,315
286,801;  314,613;  312,076;  307,795
286,889;  328,847;  319,435;  320,055
286,976;  294,913;  287,905;  291,205
287,064;  313,313;  307,635;  311,875
287,152;  309,480;  303,576;  305,585
287,240;  311,713;  309,185;  308,845
287,328;  291,247;  287,685;  281,755
287,416;  297,980;  290,975;  292,385
287,504;  296,213;  294,435;  298,285
287,591;  303,913;  298,176;  300,225
287,679;  289,547;  286,095;  286,145
287,767;  303,013;  298,206;  296,985
287,855;  304,047;  303,736;  307,515
287,943;  310,347;  306,716;  309,435
288,030;  294,813;  293,456;  291,795
288,118;  324,013;  318,255;  318,995
288,206;  280,980;  274,956;  275,705
288,294;  305,813;  301,986;  304,135
288,382;  306,480;  300,776;  303,615
288,469;  311,813;  304,396;  308,895
288,557;  295,513;  294,095;  292,615
288,645;  328,413;  323,396;  323,315
288,732;  284,880;  278,915;  279,235
288,820;  309,613;  304,576;  306,785
288,908;  308,180;  304,826;  303,915
288,995;  312,980;  310,945;  310,305
289,083;  297,047;  293,026;  292,935
289,171;  338,147;  320,165;  325,565
289,258;  367,280;  322,176;  324,305
289,346;  434,113;  326,266;  329,365
289,434;  319,580;  303,435;  306,185
289,521;  286,347;  280,415;  286,295
289,609;  323,847;  320,426;  325,405
289,697;  319,213;  312,336;  315,125
289,784;  304,813;  295,445;  295,775
289,872;  310,613;  306,905;  313,015
289,959;  284,813;  282,375;  283,415
290,047;  303,713;  296,546;  300,865
290,134;  281,447;  272,665;  273,815
290,222;  313,947;  308,915;  308,665
290,310;  310,947;  304,905;  307,145
290,397;  335,647;  328,505;  332,835
290,485;  290,980;  290,815;  293,005
290,572;  318,480;  313,225;  314,645
290,660;  305,413;  306,385;  306,205
290,747;  297,513;  295,165;  292,775
290,835;  304,847;  299,016;  302,505
290,922;  305,313;  304,016;  305,515
291,009;  300,980;  297,676;  301,715
291,097;  305,180;  297,926;  300,755
291,184;  333,380;  332,716;  338,585
291,272;  292,213;  282,966;  288,375
291,359;  292,113;  283,915;  289,305
291,447;  304,680;  303,086;  304,735
291,534;  326,280;  327,326;  323,005
291,621;  307,913;  302,845;  301,105
291,709;  287,080;  285,716;  283,705
291,796;  323,047;  320,146;  316,555
291,884;  295,947;  291,466;  296,115
291,971;  322,047;  315,065;  320,295
292,058;  295,847;  288,725;  288,985
292,146;  299,880;  293,746;  297,955
292,233;  294,180;  285,426;  284,765
292,320;  296,813;  294,306;  297,685
292,408;  316,580;  309,086;  308,565
292,495;  302,880;  290,565;  293,085
292,582;  287,980;  286,845;  287,375
292,669;  287,280;  281,415;  286,055
292,757;  289,380;  282,176;  283,865
292,844;  314,780;  312,935;  313,175
292,931;  277,480;  275,176;  277,485
293,018;  296,880;  291,516;  289,915
293,106;  304,080;  299,966;  303,035
293,193;  273,780;  272,415;  274,385
293,280;  305,547;  297,255;  303,635
293,367;  296,780;  296,956;  295,215
293,455;  299,080;  293,185;  294,155
293,542;  280,613;  275,695;  281,445
293,629;  280,680;  279,035;  281,855
293,716;  313,447;  305,646;  311,195
293,803;  293,780;  287,105;  287,695
293,890;  312,780;  310,336;  312,555
293,978;  290,480;  284,105;  290,755
294,065;  284,680;  286,725;  284,345
294,152;  302,547;  302,385;  304,355
294,239;  278,313;  275,646;  274,625
294,326;  292,313;  286,746;  290,635
294,413;  285,913;  278,046;  278,465
294,500;  295,780;  292,586;  295,255
294,587;  288,780;  283,915;  287,195
294,674;  310,913;  305,875;  306,925
294,761;  288,013;  288,896;  287,945
294,848;  293,947;  286,866;  294,115
294,935;  292,913;  290,746;  290,555
295,022;  273,647;  272,396;  274,105
295,109;  267,647;  258,466;  262,665
295,196;  290,880;  291,405;  295,265
295,283;  288,247;  281,176;  278,745
295,370;  317,447;  308,975;  312,155
295,457;  294,480;  289,986;  290,435
295,544;  288,780;  285,105;  287,985
295,631;  295,713;  290,165;  295,805
295,718;  277,780;  272,676;  274,015
295,805;  301,247;  296,225;  296,685
295,892;  305,113;  300,005;  304,445
295,979;  302,780;  291,266;  292,755
296,066;  306,980;  293,996;  296,145
296,153;  305,313;  296,026;  296,355
296,240;  313,847;  299,206;  300,535
296,327;  302,913;  285,206;  285,615
296,413;  319,880;  301,285;  305,075
296,500;  337,280;  302,755;  305,145
296,587;  516,413;  288,616;  286,065
296,674; 1632,247;  294,396;  297,335
296,761;  822,247;  300,095;  298,245
296,848;  306,413;  281,956;  285,815
296,934;  301,713;  290,966;  295,265
297,021;  303,913;  292,565;  292,975
297,108;  287,580;  276,366;  280,895
297,195;  306,480;  291,466;  294,705
297,282;  294,013;  286,535;  286,195
297,368;  318,213;  310,026;  305,975
297,455;  285,480;  279,155;  283,145
297,542;  316,613;  311,375;  313,235
297,629;  300,380;  299,016;  300,205
297,715;  313,413;  308,285;  310,385
297,802;  299,480;  300,466;  303,285
297,889;  314,747;  311,716;  313,025
297,975;  328,880;  322,836;  323,685
298,062;  320,547;  310,505;  312,995
298,149;  276,280;  273,505;  274,905
298,235;  301,680;  291,135;  294,075
298,322;  294,313;  294,806;  292,785
298,409;  314,647;  311,195;  312,715
298,495;  288,313;  285,435;  283,435
298,582;  311,847;  307,516;  308,065
298,669;  300,780;  290,526;  294,245
298,755;  302,547;  299,065;  302,235
298,842;  305,813;  304,755;  309,095
298,928;  306,947;  303,855;  304,595
299,015;  301,913;  294,896;  296,705
299,102;  327,713;  318,986;  320,565
299,188;  320,313;  315,956;  316,045
299,275;  313,513;  309,926;  309,365
299,361;  284,747;  278,875;  281,665
299,448;  313,680;  312,466;  310,885
299,534;  313,580;  312,355;  312,735
299,621;  315,280;  304,655;  303,865
299,707;  311,080;  299,016;  304,675
299,794;  323,313;  319,885;  319,685
299,880;  318,880;  317,076;  318,325
299,967;  295,813;  296,345;  296,295
300,053;  298,947;  295,935;  299,065
300,140;  332,747;  323,086;  328,875
300,226;  319,180;  313,885;  313,595
300,312;  307,047;  307,276;  306,695
300,399;  311,180;  305,505;  308,465
300,485;  301,080;  297,776;  301,725
300,572;  281,880;  281,655;  281,655
300,658;  299,247;  297,216;  294,585
300,744;  310,180;  310,706;  311,315
300,831;  314,113;  313,595;  318,275
300,917;  322,913;  321,676;  320,915
301,004;  313,647;  311,556;  311,015
301,090;  289,513;  277,785;  280,095
301,176;  290,013;  284,255;  288,205
301,263;  319,313;  313,676;  314,925
301,349;  295,980;  289,475;  293,305
301,435;  281,080;  284,276;  285,095
301,521;  313,813;  314,625;  313,245
301,608;  313,880;  314,695;  315,515
301,694;  299,547;  297,896;  300,535
301,780;  311,147;  303,046;  298,285
301,867;  293,547;  280,836;  285,265
301,953;  312,180;  296,595;  301,165
302,039;  383,613;  295,116;  297,515
302,125;  532,847;  298,445;  304,125
302,211;  364,447;  332,926;  334,115
302,298;  348,247;  301,926;  305,295
302,384;  302,713;  281,116;  287,095
302,470;  297,313;  289,505;  291,305
302,556;  306,347;  301,935;  305,645
302,642;  299,980;  293,456;  295,155
302,729;  299,580;  289,306;  293,525
302,815;  323,747;  317,966;  319,775
302,901;  298,213;  296,475;  298,745
302,987;  312,947;  307,716;  308,245
303,073;  307,047;  304,185;  302,795
303,159;  301,547;  296,945;  298,695
303,245;  291,480;  284,336;  290,495
303,331;  288,747;  283,486;  286,455
303,417;  298,980;  294,556;  296,145
303,503;  315,580;  310,046;  312,155
303,590;  297,747;  289,146;  291,705
303,676;  307,013;  299,505;  300,385
303,762;  294,213;  287,185;  287,835
303,848;  313,513;  311,026;  312,055
303,934;  315,080;  304,915;  307,775
304,020;  305,313;  301,796;  304,745
304,106;  314,813;  309,975;  314,015
304,192;  300,647;  291,796;  296,765
304,278;  306,013;  302,896;  304,455
304,364;  324,813;  323,026;  324,755
304,450;  308,847;  301,496;  304,095
304,535;  307,880;  304,005;  304,245
304,621;  305,347;  301,565;  302,205
304,707;  311,480;  306,296;  307,635
304,793;  324,647;  318,625;  318,575
304,879;  310,580;  306,776;  310,585
304,965;  316,380;  312,845;  313,365
305,051;  307,880;  308,616;  311,355
305,137;  321,813;  318,146;  324,235
305,223;  297,713;  291,445;  293,725
305,309;  319,913;  313,496;  317,755
305,394;  316,047;  311,996;  311,465
305,480;  305,213;  299,426;  304,775
305,566;  314,313;  309,355;  310,525
305,652;  319,447;  313,605;  317,885
305,738;  358,980;  349,206;  353,435
305,824;  316,613;  316,016;  315,095
305,909;  327,247;  323,815;  325,155
305,995;  297,047;  289,595;  290,025
306,081;  348,647;  348,345;  350,435
306,167;  312,447;  303,966;  307,875
306,252;  324,480;  324,375;  325,505
306,338;  343,413;  331,366;  335,515
306,424;  307,547;  306,595;  307,415
306,510;  321,280;  316,105;  319,795
306,595;  326,180;  323,685;  322,125
306,681;  318,447;  316,926;  318,895
306,767;  306,380;  305,336;  309,425
306,852;  339,580;  328,255;  331,375
306,938;  331,647;  325,796;  325,905
307,024;  302,113;  302,875;  304,755
307,109;  341,213;  336,065;  338,965
307,195;  320,380;  316,326;  318,385
307,281;  320,780;  318,716;  318,575
307,366;  318,113;  313,345;  310,455
307,452;  320,413;  312,426;  316,335
307,537;  295,680;  296,776;  298,485
307,623;  298,980;  292,105;  296,985
307,709;  316,513;  309,885;  310,795
307,794;  298,547;  288,576;  291,835
307,880;  323,947;  320,236;  319,735
307,965;  313,247;  307,456;  307,525
308,051;  299,013;  297,195;  298,065
308,136;  297,913;  297,165;  296,745
308,222;  301,313;  300,366;  302,045
308,307;  296,647;  295,116;  296,645
308,393;  306,347;  295,535;  300,335
308,478;  324,447;  321,826;  318,975
308,564;  294,313;  295,516;  288,925
308,649;  310,247;  308,496;  308,295
308,735;  299,813;  294,155;  300,535
308,820;  325,480;  320,655;  319,455
308,906;  302,347;  291,625;  300,515
308,991;  342,847;  341,076;  338,375
309,076;  323,213;  319,336;  320,645
309,162;  290,080;  283,945;  283,805
309,247;  312,780;  309,945;  308,415
309,333;  300,847;  291,646;  297,855
309,418;  305,313;  298,665;  301,955
309,503;  299,013;  297,646;  300,235
309,589;  305,380;  303,725;  305,345
309,674;  291,947;  290,945;  289,235
309,759;  308,780;  303,315;  304,195
309,845;  317,547;  311,016;  312,415
309,930;  309,347;  305,966;  307,375
310,015;  277,447;  276,095;  276,835
310,101;  315,613;  315,616;  319,905
310,186;  292,313;  285,426;  288,565
310,271;  301,913;  297,296;  298,295
310,357;  296,813;  297,526;  296,455
310,442;  313,547;  302,445;  303,865
310,527;  300,180;  297,766;  301,125
310,612;  285,113;  278,195;  281,425
310,698;  321,180;  319,725;  321,135
310,783;  305,647;  301,176;  302,685
310,868;  296,847;  294,285;  295,125
310,953;  288,880;  284,165;  285,195
311,038;  313,813;  311,146;  310,075
311,124;  297,280;  294,635;  290,925
311,209;  287,847;  276,736;  277,355
311,294;  318,313;  310,206;  312,575
311,379;  276,247;  276,785;  277,345
311,464;  307,547;  297,405;  297,635
311,549;  288,847;  282,385;  284,505
311,634;  289,913;  290,396;  286,805
311,719;  323,913;  316,016;  315,415
311,805;  296,347;  289,266;  291,605
311,890;  306,547;  295,165;  295,925
311,975;  298,347;  281,526;  286,055
312,060;  312,113;  298,146;  302,435
312,145;  292,947;  277,586;  276,025
312,230;  317,147;  290,815;  296,495
312,315;  326,913;  294,065;  296,045
312,400;  402,280;  296,396;  299,795
312,485; 1543,713;  290,535;  292,475
312,570; 1280,447;  277,125;  279,615
312,655;  350,347;  308,176;  313,325
312,740;  329,680;  301,616;  302,005
312,825;  343,847;  304,105;  307,725
312,910;  360,913;  307,736;  309,235
312,995;  440,713;  296,236;  298,245
313,080; 1923,913;  285,655;  286,805
313,165; 2203,047;  303,565;  305,305
313,250;  375,580;  287,276;  287,825
313,335;  327,380;  307,435;  312,125
313,419;  286,880;  267,466;  268,635
313,504;  327,547;  313,355;  315,225
313,589;  312,447;  295,216;  297,545
313,674;  319,847;  307,206;  310,085
313,759;  293,580;  281,556;  282,625
313,844;  304,380;  292,776;  291,005
313,929;  302,647;  289,945;  291,695
314,014;  322,613;  313,306;  315,005
314,098;  305,813;  299,035;  300,425
314,183;  268,680;  263,505;  263,795
314,268;  297,147;  296,496;  298,955
314,353;  309,913;  302,026;  306,185
314,438;  314,213;  306,905;  311,515
314,522;  318,147;  309,486;  308,535
314,607;  312,913;  307,565;  307,855
314,692;  311,213;  301,885;  303,855
314,777;  299,513;  291,766;  292,395
314,861;  282,780;  277,285;  276,385
314,946;  321,347;  315,116;  317,565
315,031;  299,480;  291,875;  294,115
315,115;  309,480;  306,206;  308,065
315,200;  317,813;  312,146;  313,065
315,285;  291,780;  289,486;  289,595
315,369;  291,580;  287,945;  288,545
315,454;  316,280;  311,905;  311,025
315,539;  315,247;  310,246;  307,795
315,623;  313,247;  309,426;  313,225
315,708;  340,213;  335,605;  336,825
315,793;  299,347;  297,986;  298,155
315,877;  303,647;  302,975;  305,445
315,962;  294,647;  289,105;  291,925
316,046;  317,513;  317,065;  319,225
316,131;  342,080;  334,516;  337,215
316,216;  311,780;  310,315;  310,785
316,300;  304,680;  303,345;  302,165
316,385;  328,880;  325,315;  324,305
316,469;  330,213;  330,625;  331,955
316,554;  299,813;  296,005;  298,425
316,638;  301,913;  296,725;  301,565
316,723;  293,813;  292,546;  293,795
316,807;  296,013;  299,595;  299,275
316,892;  289,847;  288,975;  289,925
316,976;  315,313;  314,405;  316,505
317,061;  306,147;  306,035;  305,965
317,145;  327,913;  327,655;  325,965
317,230;  323,380;  321,505;  319,905
317,314;  282,480;  275,565;  275,085
317,398;  316,080;  310,706;  312,245
317,483;  290,813;  290,026;  291,085
317,567;  315,613;  315,326;  317,865
317,652;  290,513;  283,526;  286,625
317,736;  309,947;  308,776;  309,285
317,820;  333,780;  329,005;  334,665
317,905;  307,647;  306,706;  307,035
317,989;  291,180;  298,285;  300,875
318,073;  301,147;  298,076;  297,705
318,158;  288,913;  284,966;  285,565
318,242;  306,613;  296,845;  299,095
318,326;  288,780;  283,155;  284,015
318,411;  301,013;  295,125;  296,565
318,495;  287,047;  285,776;  287,165
318,579;  287,747;  288,746;  289,305
318,664;  282,547;  280,315;  284,255
318,748;  304,280;  305,996;  310,145
318,832;  291,447;  290,806;  289,475
318,916;  279,880;  274,785;  277,335
319,001;  301,080;  299,945;  301,485
319,085;  291,747;  292,885;  290,905
319,169;  294,347;  293,396;  294,485
319,253;  291,113;  287,216;  285,525
319,337;  308,780;  306,246;  304,885
319,422;  317,813;  316,125;  313,225
319,506;  289,780;  283,326;  285,905
319,590;  308,013;  303,915;  305,525
319,674;  298,980;  291,926;  295,405
319,758;  304,480;  295,165;  300,215
319,842;  312,380;  306,135;  309,155
319,926;  296,580;  294,815;  295,205
320,010;  271,613;  267,046;  269,575
320,095;  287,180;  280,926;  284,685
320,179;  282,780;  279,125;  281,175
320,263;  282,380;  277,385;  285,805
320,347;  275,113;  271,296;  279,075
320,431;  275,847;  273,435;  274,355
320,515;  296,947;  296,375;  299,935
320,599;  271,447;  269,866;  273,825
320,683;  304,647;  305,706;  305,495
320,767;  268,947;  266,236;  266,205
320,851;  285,280;  281,855;  287,785
320,935;  321,647;  312,565;  318,275
321,019;  296,813;  292,975;  290,075
321,103;  279,247;  278,135;  280,585
321,187;  274,380;  273,165;  273,265
321,271;  293,013;  294,616;  296,825
321,355;  287,680;  281,595;  283,805
321,439;  306,913;  301,216;  301,725
321,523;  285,447;  282,266;  284,705
321,606;  288,380;  287,426;  288,215
321,690;  291,447;  287,026;  288,215
321,774;  296,013;  288,336;  292,205
321,858;  297,813;  292,966;  291,945
321,942;  297,947;  294,276;  298,975
322,026;  288,080;  283,315;  282,695
322,110;  298,047;  293,146;  295,755
322,194;  299,147;  295,355;  301,055
322,277;  295,880;  286,135;  287,285
322,361;  282,847;  278,595;  281,215
322,445;  298,613;  289,315;  291,095
322,529;  299,747;  297,716;  299,645
322,613;  300,413;  297,206;  297,795
322,696;  272,980;  267,695;  272,865
322,780;  284,947;  283,026;  283,485
322,864;  276,147;  272,625;  279,835
322,948;  300,447;  292,326;  295,965
323,031;  286,013;  281,565;  282,215
323,115;  285,547;  284,586;  285,215
323,199;  305,780;  296,565;  299,105
323,282;  307,680;  307,496;  310,065
323,366;  293,313;  287,296;  293,625
323,450;  280,847;  273,496;  275,835
323,533;  317,280;  314,576;  317,415
323,617;  267,247;  268,695;  271,585
323,701;  289,847;  281,105;  283,575
323,784;  289,913;  292,576;  294,205
323,868;  303,147;  297,866;  299,875
323,952;  302,313;  290,966;  294,175
324,035;  314,480;  305,926;  310,825
324,119;  304,747;  295,466;  298,455
324,202;  296,613;  286,836;  292,745
324,286;  286,547;  284,986;  286,605
324,370;  298,413;  293,105;  296,765
324,453;  302,313;  299,616;  301,745
324,537;  301,247;  294,426;  298,035
324,620;  294,013;  286,635;  291,765
324,704;  277,413;  270,445;  276,525
324,787;  296,480;  294,875;  296,265
324,871;  311,213;  310,986;  315,255
324,954;  310,213;  312,246;  315,985
325,038;  308,747;  306,466;  306,985
325,121;  315,880;  308,695;  312,075
325,205;  294,980;  290,396;  293,295
325,288;  287,280;  279,556;  285,675
325,371;  303,147;  298,945;  302,395
325,455;  318,947;  314,026;  312,045
325,538;  284,080;  281,516;  287,185
325,622;  328,913;  320,806;  321,295
325,705;  299,513;  297,716;  298,675
325,788;  323,347;  313,625;  316,645
325,872;  305,380;  300,796;  300,745
325,955;  327,547;  319,845;  325,065
326,039;  312,513;  309,576;  312,795
326,122;  319,613;  310,746;  311,665
326,205;  317,547;  311,806;  310,235
326,289;  321,180;  313,986;  319,245
326,372;  299,980;  294,746;  299,195
326,455;  325,547;  323,095;  324,405
326,538;  313,980;  312,336;  316,545
326,622;  325,513;  318,396;  320,075
326,705;  291,613;  287,315;  287,875
326,788;  321,747;  321,266;  322,405
326,871;  321,080;  315,576;  317,965
326,955;  317,680;  313,836;  315,225
327,038;  312,380;  310,116;  310,855
327,121;  308,547;  301,516;  307,855
327,204;  319,013;  313,216;  314,045
327,288;  335,380;  328,956;  332,375
327,371;  293,547;  288,185;  296,955
327,454;  316,380;  313,065;  313,845
327,537;  302,980;  299,815;  302,435
327,620;  328,213;  322,935;  330,145
327,703;  311,147;  309,076;  310,615
327,786;  312,313;  311,076;  312,115
327,870;  326,047;  323,155;  328,715
327,953;  308,847;  301,155;  305,785
328,036;  303,880;  293,105;  299,035
328,119;  321,213;  317,576;  321,135
328,202;  306,580;  301,885;  305,875
328,285;  324,747;  326,776;  329,015
328,368;  318,347;  320,935;  322,625
328,451;  323,947;  320,635;  322,565
328,534;  312,347;  301,266;  307,075
328,617;  309,980;  305,676;  311,785
328,700;  330,913;  326,505;  326,695
328,783;  327,080;  320,785;  322,875
328,866;  318,447;  314,095;  319,935
328,949;  322,413;  319,966;  326,555
329,032;  299,480;  297,826;  300,605
329,115;  297,213;  290,905;  295,945
329,198;  285,413;  282,956;  283,785
329,281;  298,313;  299,336;  298,465
329,364;  321,547;  316,246;  319,245
329,447;  315,613;  307,176;  309,255
329,530;  334,580;  328,155;  328,175
329,613;  305,013;  300,565;  306,725
329,696;  333,847;  326,806;  330,715
329,778;  312,713;  311,306;  316,915
329,861;  297,513;  295,236;  299,565
329,944;  330,113;  321,685;  327,225
330,027;  311,547;  311,576;  315,115
330,110;  311,747;  307,595;  311,705
330,193;  303,080;  295,306;  299,955
330,275;  319,847;  312,296;  315,835
330,358;  298,147;  291,776;  296,185
330,441;  329,113;  323,586;  325,365
330,524;  316,113;  305,216;  311,095
330,607;  304,347;  304,345;  306,905
330,689;  318,613;  313,105;  314,535
330,772;  314,713;  311,105;  312,425
330,855;  326,413;  325,065;  327,855
330,938;  314,713;  312,315;  321,275
331,020;  319,413;  317,176;  320,535
331,103;  298,180;  293,035;  294,505
331,186;  312,613;  305,146;  307,085
331,268;  305,147;  293,565;  298,695
331,351;  318,347;  313,026;  316,455
331,434;  310,747;  308,385;  312,645
331,516;  320,580;  319,076;  321,185
331,599;  303,547;  297,095;  301,425
331,682;  315,980;  310,736;  310,985
331,764;  298,413;  293,326;  297,915
331,847;  318,313;  313,716;  315,705
331,929;  292,647;  290,026;  293,225
332,012;  315,313;  309,625;  310,055
332,095;  327,580;  323,306;  326,625
332,177;  325,480;  320,806;  324,285
332,260;  332,180;  327,526;  328,035
332,342;  316,080;  309,246;  314,445
332,425;  313,213;  312,516;  311,505
332,507;  319,047;  308,526;  311,575
332,590;  297,147;  287,595;  291,655
332,672;  295,880;  294,885;  298,455
332,755;  307,447;  306,855;  311,605
332,837;  310,247;  310,716;  312,255
332,920;  314,847;  309,076;  315,155
333,002;  329,380;  325,676;  328,895
333,085;  312,480;  313,375;  315,165
333,167;  301,513;  296,875;  298,575
333,249;  300,147;  294,526;  298,145
333,332;  293,913;  293,296;  297,715
333,414;  301,480;  300,035;  304,875
333,497;  310,847;  300,255;  302,305
333,579;  308,447;  300,996;  306,375
333,661;  327,780;  319,706;  320,745
333,744;  300,213;  293,695;  297,125
333,826;  314,447;  305,766;  306,065
333,908;  320,547;  313,896;  316,665
333,991;  311,380;  291,266;  291,545
334,073;  466,680;  312,706;  318,525
334,155;  360,047;  304,086;  305,525
334,238;  326,547;  318,576;  326,145
334,320;  305,347;  297,046;  300,585
334,402;  309,147;  302,996;  304,895
334,485;  306,680;  303,655;  304,015
334,567;  303,413;  299,776;  301,975
334,649;  282,713;  278,426;  282,925
334,731;  320,113;  313,456;  317,305
334,813;  312,813;  315,605;  320,355
334,896;  290,847;  290,185;  294,595
334,978;  299,680;  309,165;  302,585
335,060;  306,513;  304,255;  304,235
335,142;  303,180;  301,665;  302,275
335,224;  314,113;  309,766;  311,745
335,307;  300,513;  297,456;  298,965
335,389;  317,347;  310,385;  317,305
335,471;  307,647;  299,896;  306,115
335,553;  323,447;  319,866;  318,905
335,635;  322,947;  312,836;  315,315
335,717;  299,313;  298,195;  300,145
335,799;  325,113;  322,695;  323,585
335,881;  281,913;  278,385;  282,845
335,963;  297,513;  291,796;  293,005
336,045;  297,247;  295,516;  301,085
336,128;  280,613;  270,945;  275,225
336,210;  287,247;  288,996;  292,295
336,292;  299,747;  297,845;  300,615
336,374;  311,747;  300,956;  306,155
336,456;  287,780;  285,616;  288,495
336,538;  305,713;  303,165;  304,435
336,620;  316,080;  310,576;  312,205
336,702;  297,347;  294,766;  294,235
336,783;  307,847;  302,556;  304,225
336,865;  307,513;  304,176;  305,725
336,947;  310,947;  308,486;  311,205
337,029;  287,047;  281,826;  282,945
337,111;  316,613;  316,266;  316,735
337,193;  284,780;  280,986;  284,795
337,275;  315,613;  310,815;  314,535
337,357;  322,147;  318,815;  324,805
337,439;  306,880;  305,255;  310,655
337,521;  284,080;  277,225;  280,915
337,602;  309,280;  298,435;  301,085
337,684;  319,913;  315,635;  317,455
337,766;  317,280;  312,266;  312,305
337,848;  304,480;  295,086;  301,025
337,930;  305,247;  303,165;  306,525
338,012;  300,213;  298,586;  299,555
338,093;  314,247;  312,396;  315,895
338,175;  321,413;  318,195;  321,575
338,257;  310,547;  306,945;  309,225
338,339;  295,447;  294,086;  300,165
338,420;  313,213;  310,986;  310,895
338,502;  302,247;  298,836;  304,265
338,584;  287,013;  286,736;  289,235
338,666;  303,380;  303,426;  302,365
338,747;  334,680;  330,806;  334,875
338,829;  308,013;  309,176;  309,265
338,911;  294,313;  296,236;  298,915
338,992;  294,913;  295,746;  294,435
339,074;  306,713;  306,155;  307,855
339,156;  302,280;  298,176;  303,395
339,237;  330,313;  325,035;  327,765
339,319;  295,880;  294,935;  300,045
339,400;  307,213;  309,065;  311,225
339,482;  284,247;  278,165;  280,605
339,564;  318,880;  317,026;  316,575
339,645;  309,613;  304,595;  308,105
339,727;  294,147;  290,216;  294,375
339,808;  329,413;  317,685;  322,555
339,890;  305,180;  299,956;  302,415
339,971;  315,647;  307,016;  315,055
340,053;  338,947;  336,746;  335,255
340,134;  299,080;  296,535;  298,415
340,216;  325,680;  315,556;  319,645
340,297;  305,513;  298,396;  301,525
340,379;  314,380;  314,736;  316,975
340,460;  311,580;  306,685;  306,615
340,542;  301,913;  294,535;  297,775
340,623;  317,080;  307,926;  312,435
340,705;  302,347;  297,516;  295,795
340,786;  292,980;  289,685;  291,925
340,868;  309,580;  308,826;  304,055
340,949;  291,647;  285,605;  286,145
341,030;  329,480;  321,435;  328,715
341,112;  282,713;  280,565;  284,075
341,193;  273,880;  270,135;  273,595
341,274;  322,147;  322,176;  320,965
341,356;  326,013;  320,716;  321,795
341,437;  301,947;  301,635;  300,825
341,518;  311,447;  307,176;  314,795
341,600;  320,080;  320,866;  322,465
341,681;  319,647;  328,866;  332,375
341,762;  327,047;  325,206;  323,705
341,844;  291,213;  287,146;  292,185
341,925;  311,180;  308,225;  311,205
342,006;  324,647;  320,426;  323,055
342,087;  293,113;  288,095;  292,095
342,169;  311,913;  307,026;  309,845
342,250;  287,847;  286,935;  285,935
342,331;  295,413;  298,706;  299,075
342,412;  308,247;  307,655;  310,045
342,493;  296,247;  289,415;  293,325
342,575;  329,547;  327,095;  327,355
342,656;  320,713;  318,466;  318,265
342,737;  331,047;  329,836;  330,295
342,818;  313,247;  307,996;  309,015
342,899;  316,680;  314,505;  317,165
342,980;  309,247;  306,695;  310,155
343,061;  308,547;  303,065;  304,715
343,143;  321,580;  319,535;  319,565
343,224;  311,880;  306,706;  305,915
343,305;  301,580;  299,625;  303,115
343,386;  303,613;  297,996;  300,475
343,467;  307,980;  303,155;  305,535
343,548;  311,613;  304,176;  305,935
343,629;  315,813;  316,405;  317,625
343,710;  327,080;  322,766;  321,015
343,791;  327,280;  325,065;  327,935
343,872;  301,647;  298,975;  297,795
343,953;  314,947;  314,826;  316,625
344,034;  328,013;  319,475;  324,485
344,115;  312,713;  304,255;  303,425
344,196;  298,813;  298,935;  302,165
344,277;  295,680;  293,306;  294,615
344,358;  307,747;  304,755;  307,345
344,439;  296,813;  293,975;  294,205
344,520;  302,147;  298,546;  300,975
344,601;  320,313;  314,646;  315,525
344,681;  310,513;  302,426;  303,825
344,762;  290,547;  283,466;  287,625
344,843;  281,780;  275,996;  281,125
344,924;  305,713;  303,635;  306,085
345,005;  291,913;  287,176;  288,725
345,086;  310,113;  307,665;  309,725
345,167;  292,047;  293,986;  295,575
345,247;  326,580;  323,896;  328,905
345,328;  312,980;  315,315;  317,705
345,409;  314,213;  307,056;  309,355
345,490;  311,313;  308,415;  314,245
345,571;  307,813;  304,875;  312,045
345,651;  282,113;  279,456;  279,055
345,732;  310,880;  307,285;  312,275
345,813;  315,813;  311,836;  317,355
345,894;  286,880;  285,785;  287,595
345,974;  308,547;  309,556;  311,845
346,055;  297,147;  296,435;  295,735
346,136;  314,380;  304,405;  306,245
346,216;  331,013;  324,945;  328,565
346,297;  303,480;  306,565;  304,225
346,378;  296,647;  291,996;  294,005
346,458;  312,847;  307,375;  313,405
346,539;  303,880;  302,306;  305,975
346,620;  311,747;  305,815;  306,685
346,700;  282,880;  288,755;  289,765
346,781;  287,447;  284,556;  286,765
346,861;  308,280;  304,336;  307,325
346,942;  305,213;  304,336;  302,715
347,023;  326,813;  317,885;  316,005
347,103;  304,280;  297,396;  302,825
347,184;  302,313;  294,475;  296,785
347,264;  298,547;  294,565;  296,805
347,345;  293,780;  290,526;  295,525
347,425;  290,980;  285,125;  290,565
347,506;  285,047;  283,595;  283,195
347,586;  289,947;  289,725;  292,435
347,667;  310,380;  307,616;  304,445
347,747;  310,613;  311,116;  310,775
347,828;  305,147;  296,486;  296,465
347,908;  308,247;  303,306;  307,175
347,988;  305,680;  298,655;  306,125
348,069;  315,347;  311,056;  311,395
348,149;  306,347;  303,956;  309,065
348,230;  314,913;  309,956;  310,945
348,310;  286,680;  284,185;  285,715
348,390;  289,380;  288,526;  288,625
348,471;  305,780;  303,665;  305,125
348,551;  291,847;  290,695;  293,935
348,632;  293,213;  289,505;  294,065
348,712;  292,013;  292,706;  295,115
348,792;  330,847;  329,836;  329,985
348,873;  287,147;  281,905;  283,045
348,953;  292,447;  289,845;  290,395
349,033;  297,747;  297,466;  299,465
349,113;  290,847;  286,076;  286,905
349,194;  300,947;  301,595;  304,825
349,274;  305,180;  304,796;  307,395
349,354;  306,113;  303,046;  308,435
349,434;  301,013;  300,116;  301,925
349,515;  321,180;  316,486;  322,185
349,595;  308,013;  302,206;  302,035
349,675;  308,213;  305,635;  308,015
349,755;  298,080;  296,746;  297,615
349,835;  309,613;  301,195;  307,695
349,916;  302,647;  298,435;  303,915
349,996;  290,847;  291,105;  291,745
350,076;  311,813;  312,375;  317,645
350,156;  279,713;  284,836;  287,665
350,236;  313,547;  314,116;  311,925
350,316;  297,913;  292,975;  295,765
350,396;  312,447;  305,646;  310,065
350,476;  300,180;  301,826;  304,275
350,556;  296,880;  293,966;  299,935
350,637;  319,880;  321,005;  321,825
350,717;  294,780;  288,445;  291,825
350,797;  303,180;  302,616;  305,905
350,877;  294,380;  289,875;  294,705
350,957;  302,447;  297,635;  300,095
351,037;  301,713;  298,556;  303,455
351,117;  300,347;  296,276;  296,555
351,197;  305,547;  303,366;  306,305
351,277;  305,013;  300,556;  301,575
351,357;  316,513;  308,806;  314,445
351,437;  313,347;  306,105;  307,755
351,516;  318,580;  317,986;  318,355
351,596;  301,880;  292,896;  296,025
351,676;  292,380;  290,405;  294,265
351,756;  329,180;  323,426;  326,135
351,836;  317,880;  313,866;  317,935
351,916;  299,747;  297,905;  298,975
351,996;  307,247;  303,996;  305,265
352,076;  302,513;  303,486;  303,085
352,156;  324,347;  319,556;  320,405
352,235;  303,713;  301,255;  300,955
352,315;  310,780;  312,456;  314,415
352,395;  305,513;  308,206;  309,425
352,475;  319,680;  315,405;  320,955
352,555;  330,247;  330,236;  330,635
352,634;  319,847;  321,956;  326,705
352,714;  308,213;  302,595;  304,055
352,794;  359,280;  354,466;  358,075
352,874;  322,380;  314,685;  317,555
352,953;  340,447;  337,676;  339,095
353,033;  326,047;  319,306;  320,925
353,113;  333,313;  332,135;  336,575
353,193;  324,080;  328,046;  329,935
353,272;  331,313;  333,135;  334,365
353,352;  311,847;  307,035;  311,285
353,432;  346,113;  343,005;  347,495
353,511;  330,080;  326,185;  330,665
353,591;  361,480;  361,616;  362,555
353,671;  334,180;  331,926;  333,015
353,750;  337,413;  332,296;  331,275
353,830;  319,647;  313,646;  317,015
353,909;  341,880;  339,836;  343,655
353,989;  318,880;  317,385;  320,255
354,069;  319,280;  319,456;  319,155
354,148;  342,047;  335,035;  339,585
354,228;  311,313;  315,695;  316,905
354,307;  332,347;  329,405;  332,345
354,387;  328,547;  322,095;  322,965
354,466;  313,480;  311,635;  316,045
354,546;  338,313;  335,135;  337,645
354,625;  325,213;  319,815;  320,355
354,705;  323,980;  324,246;  326,865
354,784;  318,647;  316,445;  318,195
354,864;  319,747;  316,635;  317,385
354,943;  336,447;  333,695;  339,105
355,023;  308,347;  310,996;  312,285
355,102;  361,280;  362,866;  363,435
355,181;  315,180;  315,966;  318,045
355,261;  342,047;  338,056;  342,165
355,340;  308,247;  303,845;  307,115
355,420;  350,480;  340,105;  342,305
355,499;  325,747;  322,975;  325,635
355,578;  319,713;  315,276;  316,885
355,658;  334,980;  332,875;  333,745
355,737;  326,213;  317,576;  319,005
355,816;  329,180;  323,276;  324,605
355,896;  319,113;  316,026;  321,355
355,975;  316,580;  307,355;  310,055
356,054;  309,613;  311,935;  312,455
356,133;  294,113;  290,565;  293,305
356,213;  324,447;  324,845;  324,825
356,292;  313,513;  304,016;  309,325
356,371;  317,347;  314,146;  314,035
356,451;  327,713;  324,755;  327,685
356,530;  353,680;  349,496;  350,795
356,609;  317,480;  311,146;  315,535
356,688;  321,613;  316,475;  316,165
356,767;  309,247;  304,695;  309,855
356,846;  329,680;  327,035;  327,235
356,926;  346,347;  340,016;  343,965
357,005;  320,047;  318,345;  318,565
357,084;  306,647;  304,466;  308,385
357,163;  323,980;  317,706;  317,185
357,242;  319,980;  320,146;  319,515
357,321;  316,480;  314,496;  316,575
357,400;  320,313;  321,236;  318,865
357,479;  319,280;  317,725;  320,795
357,559;  327,547;  321,405;  325,705
357,638;  302,480;  300,616;  298,815
357,717;  317,113;  313,746;  311,555
357,796;  335,180;  329,266;  330,875
357,875;  314,280;  314,466;  313,455
357,954;  309,880;  310,155;  313,855
358,033;  324,047;  323,405;  320,935
358,112;  334,513;  329,966;  328,315
358,191;  320,680;  315,276;  318,965
358,270;  297,247;  295,505;  297,695
358,349;  328,080;  321,625;  323,725
358,428;  324,047;  322,445;  326,125
358,507;  323,647;  321,366;  325,105
358,585;  318,480;  320,355;  325,525
358,664;  337,080;  332,266;  334,505
358,743;  318,413;  323,776;  326,515
358,822;  335,047;  334,475;  338,195
358,901;  313,513;  309,176;  309,505
358,980;  314,080;  310,885;  313,735
359,059;  332,113;  328,616;  332,255
359,138;  330,080;  329,415;  328,565
359,216;  325,513;  322,225;  327,485
359,295;  305,880;  309,475;  309,515
359,374;  329,113;  330,026;  333,455
359,453;  322,247;  316,345;  320,885
359,532;  306,247;  304,526;  308,455
359,610;  324,080;  319,556;  323,285
359,689;  332,180;  331,116;  333,025
359,768;  319,813;  313,706;  315,305
359,847;  308,313;  302,065;  305,385
359,925;  306,213;  304,105;  307,215
360,004;  305,813;  299,565;  302,585
360,083;  324,713;  320,165;  321,795
360,161;  315,780;  305,676;  309,885
360,240;  291,480;  288,725;  291,455
360,319;  321,147;  318,276;  317,225
360,397;  330,313;  324,986;  331,265
360,476;  323,913;  318,296;  324,355
360,555;  344,647;  345,565;  346,835
360,633;  309,780;  304,456;  304,945
360,712;  308,547;  309,056;  311,825
360,790;  330,947;  330,065;  331,185
360,869;  318,380;  310,266;  313,085
360,948;  322,647;  322,466;  322,235
361,026;  302,113;  300,065;  301,245
361,105;  312,447;  306,116;  309,875
361,183;  326,747;  324,725;  326,345
361,262;  307,847;  302,375;  307,465
361,340;  312,847;  305,815;  306,875
361,419;  288,080;  289,896;  290,845
361,497;  343,780;  340,926;  346,955
361,576;  322,647;  317,736;  323,245
361,654;  347,980;  342,736;  343,615
361,733;  298,013;  297,366;  297,305
361,811;  332,147;  329,065;  331,875
361,890;  297,180;  292,595;  293,595
361,968;  317,680;  313,706;  316,715
362,046;  336,847;  335,296;  335,795
362,125;  340,680;  337,435;  340,865
362,203;  320,913;  314,635;  316,745
362,282;  332,247;  328,676;  334,675
362,360;  322,813;  318,315;  323,125
362,438;  318,580;  313,565;  317,495
362,517;  360,513;  357,725;  357,035
362,595;  342,480;  340,956;  345,025
362,673;  341,580;  334,576;  338,035
362,752;  323,180;  326,366;  329,445
362,830;  342,547;  343,155;  338,795
362,908;  327,380;  322,885;  326,315
362,986;  330,747;  333,595;  334,645
363,065;  328,547;  326,405;  330,985
363,143;  360,013;  359,875;  363,525
363,221;  321,280;  313,755;  319,675
363,299;  317,080;  315,845;  315,595
363,378;  337,580;  327,546;  328,495
363,456;  309,713;  304,326;  305,295
363,534;  332,713;  323,996;  327,895
363,612;  336,680;  327,546;  330,285
363,690;  344,413;  337,885;  341,915
363,769;  356,247;  349,336;  354,965
363,847;  339,447;  332,326;  333,935
363,925;  309,847;  303,095;  306,775
364,003;  355,013;  350,866;  351,845
364,081;  347,547;  336,345;  339,765
364,159;  339,080;  331,836;  334,695
364,237;  348,147;  341,276;  343,025
364,315;  333,613;  318,866;  320,765
364,393;  364,080;  350,935;  355,465
364,471;  344,613;  328,185;  329,975
364,549;  358,013;  333,026;  334,495
364,627;  359,347;  323,095;  327,065
364,705;  366,380;  311,135;  310,945
364,783;  426,347;  323,496;  332,235
364,861;  990,513;  331,396;  334,915
364,939; 3527,147;  314,086;  319,855
365,017;  806,613;  306,046;  310,735
365,095;  375,780;  322,116;  324,495
365,173;  376,247;  345,556;  349,605
365,251;  387,113;  341,535;  344,665
365,329;  528,847;  346,466;  345,195
365,407; 1152,380;  318,345;  321,385
365,485;  472,547;  344,826;  348,395
365,563;  363,047;  344,306;  346,815
365,641;  340,313;  331,896;  331,005
365,719;  344,380;  337,095;  336,965
365,796;  346,713;  334,926;  336,075
365,874;  357,247;  347,426;  349,165
365,952;  323,347;  309,516;  312,925
366,030;  351,347;  334,866;  333,525
366,108;  366,547;  326,345;  328,575
366,185;  613,613;  338,396;  343,695
366,263;  878,547;  334,646;  340,035
366,341;  388,480;  334,125;  339,925
366,419;  344,913;  331,535;  331,355
366,496;  354,147;  342,655;  345,225
366,574;  341,580;  325,826;  329,315
366,652;  353,180;  345,296;  349,635
366,730;  364,880;  365,475;  368,065
366,807;  342,080;  330,845;  334,945
366,885;  332,780;  321,135;  327,175
366,963;  334,913;  329,016;  331,635
367,040;  349,680;  345,815;  352,465
367,118;  328,280;  321,875;  325,205
367,196;  349,313;  341,896;  344,715
367,273;  340,480;  335,845;  338,245
367,351;  338,480;  328,155;  331,125
367,428;  362,980;  355,016;  356,915
367,506;  334,147;  329,225;  333,905
367,584;  364,080;  360,216;  363,085
367,661;  347,447;  341,785;  346,585
367,739;  334,847;  328,466;  334,835
367,816;  328,247;  320,345;  324,175
367,894;  342,280;  339,146;  345,755
367,971;  337,947;  329,885;  333,335
368,049;  352,213;  349,586;  353,435
368,126;  317,913;  314,625;  317,265
368,204;  353,480;  351,836;  352,775
368,281;  361,847;  353,225;  355,775
368,359;  352,147;  348,806;  354,965
368,436;  346,347;  342,385;  348,785
368,514;  353,047;  349,646;  351,035
368,591;  351,080;  343,486;  348,405
368,668;  349,513;  347,486;  351,455
368,746;  361,813;  358,556;  362,125
368,823;  347,980;  342,405;  345,515
368,901;  338,480;  339,046;  341,025
368,978;  361,347;  354,975;  361,925
369,055;  352,480;  343,826;  347,145
369,133;  370,680;  367,046;  368,725
369,210;  339,213;  339,206;  342,185
369,287;  375,213;  367,986;  371,205
369,365;  381,480;  368,896;  369,715
369,442;  349,513;  346,826;  351,135
369,519;  303,513;  306,396;  310,475
369,596;  370,113;  369,005;  372,695
369,674;  339,980;  336,526;  336,705
369,751;  369,780;  368,005;  369,405
369,828;  354,247;  350,366;  351,255
369,905;  354,880;  354,796;  358,705
369,983;  329,513;  329,826;  336,485
370,060;  335,380;  335,185;  336,165
370,137;  377,880;  371,595;  373,975
370,214;  339,880;  340,246;  340,845
370,291;  355,613;  347,845;  351,965
370,368;  346,847;  345,426;  349,675
370,446;  337,180;  335,716;  337,375
370,523;  332,113;  331,586;  338,615
370,600;  357,780;  350,706;  356,355
370,677;  352,413;  345,826;  349,525
370,754;  343,647;  341,706;  344,655
370,831;  349,813;  344,885;  347,665
370,908;  370,680;  368,556;  369,945
370,985;  333,080;  326,206;  327,885
371,062;  354,413;  346,635;  347,955
371,139;  358,313;  362,125;  364,815
371,216;  361,513;  357,496;  359,475
371,293;  350,247;  350,576;  350,305
371,370;  332,080;  328,806;  332,395
371,447;  363,413;  354,736;  355,835
371,524;  385,347;  374,685;  378,505
371,601;  379,580;  371,556;  374,285
371,678;  377,680;  374,306;  375,345
371,755;  351,680;  348,526;  348,275
371,832;  375,547;  374,526;  377,175
371,909;  343,113;  342,065;  344,605
371,986;  384,313;  376,505;  379,065
372,063;  347,580;  346,195;  348,745
372,140;  358,247;  354,056;  357,495
372,216;  358,047;  360,225;  360,935
372,293;  347,213;  341,945;  344,805
372,370;  374,380;  370,236;  372,635
372,447;  360,013;  361,646;  361,385
372,524;  351,847;  349,725;  352,115
372,601;  355,213;  353,236;  356,005
372,677;  340,180;  339,586;  339,035
372,754;  351,613;  347,516;  350,955
372,831;  357,180;  354,716;  356,955
372,908;  370,780;  368,496;  364,795
372,984;  351,713;  349,246;  356,035
373,061;  339,247;  342,046;  342,845
373,138;  360,447;  349,986;  354,465
373,215;  347,647;  345,155;  346,585
373,291;  352,380;  347,556;  353,415
373,368;  355,013;  353,516;  357,375
373,445;  352,480;  348,285;  348,395
373,521;  355,847;  349,216;  353,935
373,598;  347,513;  341,766;  343,845
373,675;  336,047;  332,646;  334,115
373,751;  353,247;  345,375;  354,195
373,828;  350,613;  341,076;  346,375
373,904;  396,547;  387,225;  391,935
373,981;  333,980;  332,516;  333,585
374,057;  358,613;  353,306;  355,945
374,134;  337,847;  331,706;  334,435
374,211;  350,713;  348,826;  351,835
374,287;  341,980;  338,565;  339,035
374,364;  368,247;  362,426;  365,335
374,440;  327,113;  319,035;  321,205
374,517;  365,447;  361,625;  366,995
374,593;  320,547;  326,896;  326,865
374,670;  345,780;  340,095;  342,905
374,746;  351,080;  346,915;  349,135
374,823;  374,947;  369,255;  368,775
374,899;  364,880;  366,836;  366,475
374,975;  339,747;  336,035;  341,495
375,052;  326,713;  319,776;  326,175
375,128;  331,647;  325,956;  331,675
375,205;  356,013;  353,665;  355,605
375,281;  336,247;  337,296;  336,395
375,357;  374,247;  361,026;  364,245
375,434;  337,213;  331,986;  338,045
375,510;  348,647;  347,755;  353,175
375,586;  356,313;  347,486;  349,845
375,663;  326,480;  321,926;  323,515
375,739;  360,813;  355,716;  358,675
375,815;  351,580;  346,366;  346,765
375,892;  347,880;  344,516;  348,555
375,968;  339,580;  331,605;  336,855
376,044;  339,613;  335,866;  339,405
376,120;  330,680;  332,535;  339,615
376,197;  353,880;  348,466;  352,185
376,273;  343,580;  340,516;  341,095
376,349;  380,613;  378,366;  379,125
376,425;  364,580;  362,935;  364,425
376,501;  350,280;  344,225;  347,555
376,578;  368,313;  362,885;  363,255
376,654;  387,080;  383,866;  382,945
376,730;  366,647;  360,266;  364,005
376,806;  374,313;  375,185;  376,845
376,882;  379,413;  377,176;  378,355
376,958;  382,680;  376,706;  373,325
377,034;  328,213;  319,695;  317,895
377,111;  370,080;  368,826;  369,285
377,187;  388,480;  390,845;  391,825
377,263;  393,880;  383,885;  384,725
377,339;  350,147;  341,445;  346,375
377,415;  366,180;  366,366;  365,685
377,491;  347,347;  342,885;  347,505
377,567;  366,213;  359,755;  360,685
377,643;  382,313;  380,076;  378,785
377,719;  370,180;  363,706;  367,845
377,795;  349,613;  345,725;  349,165
377,871;  374,447;  367,866;  370,355
377,947;  347,113;  348,236;  351,215
378,023;  351,813;  345,855;  349,075
378,099;  348,913;  349,035;  350,465
378,174;  380,580;  374,176;  374,825
378,250;  367,313;  363,105;  366,955
378,326;  375,780;  366,255;  370,045
378,402;  363,980;  357,685;  360,315
378,478;  362,147;  361,605;  365,295
378,554;  372,747;  370,396;  375,075
378,630;  365,047;  365,225;  365,285
378,706;  366,380;  358,076;  357,335
378,781;  402,013;  390,875;  394,875
378,857;  373,080;  363,185;  366,505
378,933;  366,347;  360,315;  365,855
379,009;  355,480;  351,426;  351,035
379,085;  396,380;  393,826;  391,725
379,160;  384,347;  377,246;  378,485
379,236;  379,613;  374,195;  376,655
379,312;  366,547;  359,915;  361,725
379,387;  358,380;  354,486;  355,105
379,463;  359,680;  359,836;  363,685
379,539;  379,480;  370,475;  373,395
379,615;  365,347;  359,056;  358,495
379,690;  401,547;  395,035;  398,755
379,766;  378,147;  373,276;  379,335
379,842;  389,080;  391,105;  391,375
379,917;  387,113;  380,935;  388,225
379,993;  380,747;  368,366;  373,385
380,068;  360,813;  359,236;  361,755
380,144;  383,447;  381,086;  383,405
380,220;  387,847;  382,086;  386,535
380,295;  362,613;  353,005;  355,035
380,371;  363,513;  359,935;  361,545
380,446;  379,680;  377,165;  381,125
380,522;  351,713;  348,766;  349,425
380,597;  362,113;  360,486;  359,965
380,673;  397,080;  390,456;  394,425
380,748;  358,580;  358,046;  358,445
380,824;  367,547;  367,676;  369,935
380,899;  392,613;  386,216;  388,425
380,975;  362,980;  365,475;  366,905
381,050;  356,380;  352,806;  352,825
381,126;  376,080;  370,526;  373,695
381,201;  409,680;  398,806;  402,495
381,277;  373,647;  373,435;  374,795
381,352;  387,613;  388,105;  390,855
381,427;  374,480;  372,586;  376,025
381,503;  387,080;  378,896;  379,385
381,578;  367,447;  360,605;  365,515
381,653;  373,747;  368,776;  372,375
381,729;  363,347;  361,535;  360,945
381,804;  371,413;  367,475;  368,805
381,879;  387,180;  383,306;  386,055
381,955;  359,947;  354,396;  356,545
382,030;  355,547;  356,556;  357,225
382,105;  382,913;  375,586;  372,555
382,181;  380,647;  367,466;  371,255
382,256;  378,813;  378,116;  374,765
382,331;  376,013;  367,216;  371,745
382,406;  355,613;  353,266;  357,745
382,482;  363,113;  361,315;  357,655
382,557;  366,013;  363,526;  366,745
382,632;  373,547;  370,595;  371,585
382,707;  365,713;  361,135;  365,615
382,782;  372,880;  361,516;  366,275
382,857;  365,180;  358,996;  361,035
382,933;  357,880;  351,776;  352,995
383,008;  348,947;  344,065;  345,165
383,083;  376,947;  376,866;  379,215
383,158;  388,380;  378,866;  381,615
383,233;  366,780;  362,385;  363,105
383,308;  367,413;  359,875;  362,675
383,383;  394,413;  389,445;  391,785
383,458;  366,180;  361,135;  360,475
383,533;  353,180;  342,456;  344,625
383,608;  393,480;  387,885;  390,385
383,683;  390,280;  385,046;  389,585
383,758;  382,013;  380,285;  380,925
383,833;  372,980;  370,296;  371,015
383,908;  345,147;  343,206;  342,165
383,983;  345,180;  346,296;  350,755
384,058;  363,580;  355,246;  357,655
384,133;  366,247;  368,185;  368,575
384,208;  381,413;  376,796;  379,565
384,283;  356,747;  348,736;  351,825
384,358;  381,813;  381,845;  387,485
384,433;  361,280;  357,496;  357,355
384,508;  374,713;  368,966;  373,895
384,583;  377,113;  373,725;  375,265
384,658;  369,480;  367,915;  371,275
384,732;  340,513;  339,456;  339,705
384,807;  366,047;  366,935;  369,005
384,882;  377,513;  371,246;  373,145
384,957;  376,613;  368,095;  371,985
385,032;  376,247;  375,426;  376,555
385,106;  371,880;  370,216;  371,515
385,181;  357,180;  351,385;  357,155
385,256;  365,413;  363,565;  366,745
385,331;  377,113;  371,935;  373,255
385,405;  381,113;  380,975;  381,445
385,480;  371,513;  365,695;  366,715
385,555;  405,013;  399,306;  400,405
385,630;  393,113;  390,956;  395,935
385,704;  381,747;  374,056;  377,105
385,779;  366,580;  364,405;  364,855
385,854;  367,713;  368,746;  369,975
385,928;  368,313;  363,016;  365,315
386,003;  410,980;  402,586;  405,115
386,078;  374,280;  372,466;  374,995
386,152;  401,513;  401,456;  401,815
386,227;  366,113;  357,646;  361,225
386,301;  385,080;  378,725;  380,385
386,376;  359,547;  348,695;  355,015
386,450;  379,147;  378,616;  381,145
386,525;  377,047;  373,556;  377,655
386,600;  389,647;  385,746;  385,925
386,674;  370,480;  364,076;  367,315
386,749;  381,513;  375,095;  381,315
386,823;  382,247;  377,435;  382,095
386,898;  384,513;  379,766;  380,535
386,972;  387,780;  380,966;  385,985
387,047;  375,880;  369,776;  374,355
387,121;  383,713;  379,695;  380,335
387,195;  358,713;  357,875;  359,895
387,270;  390,413;  385,625;  385,415
387,344;  407,647;  404,405;  407,055
387,419;  390,713;  385,665;  393,195
387,493;  383,813;  377,776;  379,825
387,567;  357,180;  355,005;  358,475
387,642;  409,347;  403,586;  405,945
387,716;  370,313;  369,565;  372,245
387,790;  367,347;  367,706;  371,225
387,865;  376,013;  372,806;  373,715
387,939;  407,813;  403,005;  404,415
388,013;  389,580;  384,806;  386,145
388,088;  379,580;  368,655;  370,085
388,162;  371,247;  370,135;  371,835
388,236;  377,380;  372,456;  375,275
388,310;  369,147;  361,966;  364,475
388,385;  403,947;  397,185;  400,845
388,459;  376,347;  379,996;  380,235
388,533;  362,113;  363,676;  362,565
388,607;  365,080;  366,776;  365,955
388,682;  375,847;  374,806;  375,745
388,756;  362,147;  355,035;  360,825
388,830;  392,747;  390,255;  394,075
388,904;  382,813;  378,276;  385,365
388,978;  371,613;  369,535;  370,165
389,052;  375,680;  375,396;  377,225
389,126;  373,680;  370,435;  376,195
389,200;  378,280;  372,665;  377,205
389,275;  373,180;  369,266;  367,695
389,349;  375,180;  374,695;  373,065
389,423;  370,780;  369,565;  369,375
389,497;  382,347;  380,966;  383,775
389,571;  371,713;  368,665;  370,175
389,645;  379,713;  376,806;  379,805
389,719;  373,113;  369,396;  372,955
389,793;  348,047;  346,576;  348,725
389,867;  403,813;  398,035;  402,955
389,941;  376,847;  375,375;  377,215
390,015;  370,513;  361,135;  364,515
390,089;  366,713;  360,426;  362,085
390,163;  374,980;  372,456;  375,935
390,237;  379,880;  375,435;  379,295
390,310;  386,047;  379,276;  382,155
390,384;  384,113;  376,546;  383,625
390,458;  402,413;  400,826;  403,825
390,532;  392,580;  383,496;  386,725
390,606;  367,080;  365,945;  369,265
390,680;  370,213;  366,466;  368,115
390,754;  368,813;  366,385;  368,915
390,827;  392,880;  388,276;  392,645
390,901;  395,047;  391,855;  396,215
390,975;  376,647;  368,905;  370,295
391,049;  363,713;  366,366;  364,315
391,123;  369,513;  362,685;  363,545
391,196;  369,413;  367,635;  367,855
391,270;  376,213;  378,426;  377,835
391,344;  367,447;  360,056;  359,585
391,418;  376,680;  372,975;  372,155
391,491;  364,447;  362,655;  363,995
391,565;  370,147;  362,065;  366,105
391,639;  401,480;  394,345;  397,875
391,712;  384,380;  385,815;  384,375
391,786;  390,147;  382,646;  386,785
391,860;  370,713;  369,385;  370,925
391,933;  376,213;  369,935;  371,115
392,007;  377,613;  371,355;  380,875
392,081;  402,080;  396,456;  399,955
392,154;  383,013;  377,845;  383,895
392,228;  402,380;  391,366;  394,685
392,301;  381,880;  376,266;  381,275
392,375;  391,647;  386,076;  389,995
392,448;  385,747;  379,516;  384,445
392,522;  376,513;  376,236;  379,965
392,595;  374,313;  370,105;  374,245
392,669;  375,780;  376,116;  379,675
392,742;  396,413;  390,975;  396,915
392,816;  398,647;  397,296;  400,205
392,889;  393,847;  392,746;  396,605
392,963;  414,813;  409,095;  409,745
393,036;  383,080;  385,345;  386,785
393,110;  397,713;  391,155;  393,885
393,183;  402,380;  400,836;  405,685
393,257;  416,480;  415,456;  417,745
393,330;  370,080;  365,845;  369,745
393,403;  399,947;  390,486;  395,585
393,477;  359,313;  355,845;  358,875
393,550;  393,047;  390,306;  395,545
393,623;  391,080;  388,396;  388,295
393,697;  407,180;  406,056;  406,835
393,770;  376,480;  376,556;  379,065
393,843;  408,247;  402,996;  406,915
393,917;  402,747;  394,216;  398,485
393,990;  411,380;  409,996;  410,125
394,063;  394,980;  386,855;  392,225
394,136;  394,180;  388,635;  391,675
394,210;  395,413;  393,336;  395,655
394,283;  410,780;  402,785;  407,175
394,356;  400,247;  399,165;  399,175
394,429;  397,080;  396,935;  398,825
394,502;  385,813;  382,016;  383,895
394,576;  414,413;  414,125;  414,715
394,649;  384,247;  378,776;  377,865
394,722;  404,813;  400,896;  403,785
394,795;  408,047;  408,306;  413,185
394,868;  387,413;  384,135;  385,985
394,941;  374,913;  376,435;  375,265
395,014;  420,180;  417,056;  420,205
395,088;  400,780;  398,956;  399,175
395,161;  399,580;  395,466;  398,685
395,234;  413,213;  409,236;  410,735
395,307;  407,013;  402,236;  405,525
395,380;  391,113;  384,736;  385,325
395,453;  440,580;  436,845;  437,285
395,526;  409,780;  408,385;  412,495
395,599;  430,847;  426,926;  430,645
395,672;  402,547;  394,586;  394,895
395,745;  420,113;  417,125;  421,075
395,818;  376,247;  376,306;  378,615
395,891;  394,347;  385,635;  387,695
395,964;  416,613;  415,896;  414,885
396,036;  392,013;  387,486;  384,175
396,109;  396,047;  392,076;  395,785
396,182;  402,180;  396,766;  399,545
396,255;  402,847;  399,225;  398,845
396,328;  417,013;  410,065;  411,075
396,401;  373,847;  370,746;  371,295
396,474;  382,913;  381,086;  381,505
396,547;  399,780;  397,046;  400,645
396,619;  397,480;  390,755;  390,525
396,692;  410,847;  404,866;  411,355
396,765;  377,413;  370,616;  372,985
396,838;  387,913;  388,225;  388,295
396,911;  375,513;  371,266;  373,155
396,983;  397,480;  392,496;  392,385
397,056;  371,980;  372,355;  374,095
397,129;  392,313;  387,796;  389,615
397,201;  389,147;  391,556;  389,605
397,274;  389,713;  385,366;  389,335
397,347;  365,147;  363,345;  363,665
397,420;  389,347;  384,605;  387,195
397,492;  392,347;  388,296;  388,685
397,565;  379,247;  375,915;  379,595
397,637;  377,047;  369,366;  372,085
397,710;  357,647;  351,586;  350,295
397,783;  412,647;  412,855;  414,805
397,855;  348,713;  345,345;  347,055
397,928;  373,447;  368,336;  371,095
398,000;  393,680;  395,866;  396,635
398,073;  389,413;  386,546;  384,745
398,146;  378,180;  376,706;  377,295
398,218;  397,313;  390,255;  393,135
398,291;  387,080;  385,806;  387,915
398,363;  378,447;  381,755;  384,505
398,436;  371,980;  369,855;  374,675
398,508;  387,813;  383,266;  385,345
398,581;  382,547;  378,206;  380,565
398,653;  373,880;  374,255;  373,825
398,726;  384,213;  378,535;  383,385
398,798;  385,547;  383,306;  387,885
398,870;  399,147;  391,116;  396,905
398,943;  370,113;  366,236;  369,775
399,015;  370,347;  365,676;  368,815
399,088;  386,047;  389,655;  388,435
399,160;  371,980;  368,076;  368,815
399,232;  354,180;  350,405;  352,095
399,305;  371,647;  368,435;  372,935
399,377;  381,413;  377,905;  377,535
399,449;  391,280;  386,246;  388,735
399,522;  422,547;  421,875;  424,965
399,594;  365,380;  364,576;  365,315
399,666;  384,447;  382,625;  385,235
399,738;  374,747;  373,336;  375,225
399,811;  376,713;  376,736;  377,025
399,883;  388,080;  386,105;  388,295
399,955;  391,280;  389,855;  389,195
400,027;  348,880;  345,945;  349,545
400,100;  409,947;  407,366;  409,275
400,172;  349,447;  348,296;  349,645
400,244;  381,647;  378,225;  381,195
400,316;  392,280;  393,016;  393,505
400,388;  389,347;  389,385;  393,005
400,460;  371,880;  359,306;  364,605
400,532;  355,580;  350,826;  351,835
400,605;  389,413;  377,736;  384,975
400,677;  407,580;  402,285;  404,675
400,749;  394,147;  395,685;  398,125
400,821;  384,447;  385,956;  388,105
400,893;  379,547;  379,445;  382,305
400,965;  396,247;  386,755;  392,785
401,037;  392,847;  387,565;  392,525
401,109;  376,713;  370,725;  373,835
401,181;  374,913;  380,716;  385,485

