pru
Integration time [ms]:   0,150
Averaging Nr. [scans]: 100
Smoothing Nr. [pixels]: 0
Data measured with spectrometer [name]: 7416147SP
Wave   ;Sample   ;Dark     ;Reference
[nm]   ;[counts] ;[counts] ;[counts] 

230,218;  293,080;  290,315;  293,845
230,311;  319,090;  319,885;  318,565
230,404;  311,350;  309,855;  312,875
230,497;  320,150;  317,385;  315,715
230,591;  334,520;  333,426;  335,355
230,684;  329,020;  326,486;  329,355
230,777;  312,090;  311,736;  314,765
230,870;  314,620;  313,326;  316,955
230,964;  309,850;  310,885;  314,745
231,057;  341,560;  342,496;  343,475
231,150;  333,280;  331,695;  332,715
231,243;  330,270;  330,635;  332,775
231,336;  331,220;  331,375;  331,335
231,430;  318,300;  316,496;  317,715
231,523;  328,300;  324,516;  326,785
231,616;  307,640;  305,445;  309,685
231,709;  344,330;  328,065;  330,025
231,802;  319,630;  300,945;  301,885
231,895;  315,540;  299,836;  300,315
231,988;  329,380;  315,655;  318,535
232,082;  312,060;  298,155;  302,425
232,175;  315,140;  302,155;  306,175
232,268;  315,290;  301,266;  305,345
232,361;  321,310;  304,806;  307,515
232,454;  334,760;  322,396;  323,025
232,547;  335,030;  318,716;  322,655
232,640;  308,710;  296,766;  294,035
232,733;  332,350;  314,116;  323,045
232,826;  306,540;  288,915;  295,035
232,919;  326,180;  313,826;  312,665
233,012;  307,310;  293,646;  292,775
233,105;  312,210;  294,766;  298,815
233,199;  316,240;  299,875;  304,045
233,292;  305,260;  293,475;  296,235
233,385;  273,720;  263,426;  262,225
233,478;  306,180;  293,885;  295,685
233,571;  341,450;  324,586;  327,675
233,664;  322,700;  305,996;  308,435
233,757;  295,790;  280,796;  281,395
233,850;  297,470;  282,255;  285,825
233,943;  307,100;  290,896;  292,195
234,035;  318,290;  300,576;  302,355
234,128;  295,250;  281,836;  283,945
234,221;  314,260;  297,665;  298,245
234,314;  325,670;  304,915;  311,975
234,407;  324,770;  302,935;  309,075
234,500;  295,860;  277,625;  281,875
234,593;  306,000;  287,095;  285,735
234,686;  308,400;  293,746;  293,765
234,779;  308,630;  291,266;  293,165
234,872;  296,790;  281,806;  281,565
234,965;  304,910;  292,806;  290,795
235,058;  292,740;  274,155;  276,215
235,150;  306,330;  285,776;  290,805
235,243;  297,720;  282,736;  284,425
235,336;  319,070;  300,695;  304,545
235,429;  289,970;  273,646;  272,515
235,522;  349,220;  330,996;  335,445
235,615;  277,810;  262,276;  265,145
235,707;  296,460;  282,415;  282,335
235,800;  302,630;  289,815;  290,515
235,893;  304,280;  289,956;  292,955
235,986;  314,800;  298,266;  299,325
236,079;  298,880;  286,586;  291,125
236,171;  287,800;  270,725;  271,865
236,264;  324,940;  312,635;  313,275
236,357;  308,640;  290,986;  293,865
236,450;  326,100;  315,225;  317,215
236,542;  282,980;  267,065;  272,575
236,635;  326,970;  313,546;  316,385
236,728;  301,210;  285,516;  288,115
236,821;  296,950;  280,165;  283,715
236,913;  293,850;  277,896;  276,315
237,006;  286,510;  271,605;  275,435
237,099;  299,530;  283,896;  285,575
237,191;  313,420;  298,796;  300,225
237,284;  284,130;  267,896;  272,995
237,377;  314,070;  294,725;  297,495
237,470;  298,940;  285,415;  287,875
237,562;  292,300;  276,866;  275,785
237,655;  336,120;  320,945;  324,565
237,747;  311,330;  292,695;  295,845
237,840;  329,010;  313,086;  314,435
237,933;  318,210;  300,445;  301,555
238,025;  318,140;  301,415;  301,595
238,118;  298,990;  282,456;  287,755
238,211;  289,200;  268,155;  272,375
238,303;  286,680;  272,296;  273,415
238,396;  280,680;  268,065;  271,945
238,488;  306,240;  292,625;  291,075
238,581;  302,720;  287,855;  289,445
238,673;  300,790;  285,766;  286,865
238,766;  300,110;  282,635;  283,185
238,859;  287,270;  273,586;  276,105
238,951;  297,080;  281,095;  282,835
239,044;  291,140;  276,496;  279,525
239,136;  285,700;  269,035;  271,705
239,229;  297,250;  280,665;  283,435
239,321;  290,800;  271,255;  276,105
239,414;  309,800;  289,875;  292,345
239,506;  300,320;  284,625;  290,655
239,599;  332,510;  316,315;  315,935
239,691;  301,910;  287,945;  287,755
239,784;  321,630;  301,926;  304,175
239,876;  311,270;  295,005;  294,715
239,969;  305,170;  284,426;  288,635
240,061;  288,170;  269,505;  272,655
240,153;  296,500;  276,776;  278,405
240,246;  305,450;  287,635;  287,925
240,338;  330,240;  315,285;  314,405
240,431;  286,530;  268,896;  270,455
240,523;  286,520;  269,315;  270,665
240,615;  314,140;  299,086;  301,495
240,708;  326,630;  309,945;  312,145
240,800;  302,850;  286,956;  289,175
240,893;  287,930;  272,216;  274,965
240,985;  306,650;  286,116;  289,995
241,077;  284,470;  269,866;  271,905
241,170;  317,650;  300,355;  300,805
241,262;  309,690;  293,695;  290,825
241,354;  270,680;  252,305;  253,985
241,447;  300,180;  281,326;  283,905
241,539;  286,470;  266,746;  270,745
241,631;  333,330;  314,366;  317,275
241,724;  278,490;  259,135;  260,655
241,816;  298,790;  279,385;  281,545
241,908;  294,300;  275,056;  280,445
242,000;  298,200;  277,625;  279,505
242,093;  298,940;  277,725;  280,745
242,185;  297,630;  277,736;  277,535
242,277;  292,500;  274,695;  277,115
242,369;  298,110;  282,146;  286,335
242,462;  291,610;  274,405;  274,215
242,554;  295,710;  277,146;  281,105
242,646;  300,800;  283,146;  286,575
242,738;  320,340;  303,255;  307,195
242,830;  278,390;  259,026;  260,415
242,923;  314,470;  297,035;  299,015
243,015;  285,120;  268,655;  266,675
243,107;  285,440;  267,676;  271,255
243,199;  293,600;  276,345;  278,365
243,291;  288,820;  272,125;  276,215
243,383;  269,530;  254,826;  256,465
243,476;  282,450;  269,435;  268,005
243,568;  297,600;  280,915;  284,885
243,660;  290,530;  273,385;  279,575
243,752;  301,590;  279,796;  287,275
243,844;  316,440;  300,766;  302,705
243,936;  307,790;  291,956;  293,555
244,028;  319,810;  304,796;  307,475
244,120;  267,510;  254,346;  255,525
244,212;  305,530;  293,826;  293,755
244,305;  283,320;  268,496;  267,935
244,397;  302,890;  289,165;  291,675
244,489;  319,640;  304,276;  307,925
244,581;  314,810;  299,255;  300,795
244,673;  297,890;  281,806;  283,225
244,765;  304,690;  286,035;  290,565
244,857;  300,980;  284,986;  287,335
244,949;  301,210;  283,956;  284,945
245,041;  268,080;  250,865;  255,005
245,133;  310,890;  293,695;  296,625
245,225;  292,910;  277,915;  280,695
245,317;  303,940;  289,456;  289,025
245,409;  281,210;  263,755;  269,375
245,501;  303,970;  288,496;  293,045
245,593;  305,260;  286,255;  290,055
245,685;  301,080;  285,405;  288,735
245,776;  298,620;  285,945;  287,235
245,868;  285,720;  271,276;  272,565
245,960;  277,680;  265,875;  263,405
246,052;  321,400;  310,766;  310,445
246,144;  308,030;  294,165;  294,205
246,236;  293,160;  283,576;  283,565
246,328;  304,710;  291,345;  293,965
246,420;  291,440;  279,746;  280,855
246,512;  323,370;  308,236;  310,455
246,604;  298,970;  282,526;  286,825
246,695;  283,780;  273,345;  272,135
246,787;  310,930;  293,526;  301,145
246,879;  306,570;  292,716;  297,145
246,971;  310,700;  299,276;  300,965
247,063;  292,450;  273,255;  278,605
247,155;  311,490;  294,516;  297,195
247,246;  300,260;  283,266;  283,715
247,338;  304,960;  288,116;  294,265
247,430;  316,240;  299,945;  303,475
247,522;  312,320;  297,546;  300,555
247,613;  314,700;  296,586;  299,675
247,705;  303,690;  286,896;  288,445
247,797;  326,870;  305,776;  307,475
247,889;  319,300;  294,706;  295,475
247,980;  320,900;  285,676;  291,995
248,072;  335,160;  282,845;  285,895
248,164;  351,010;  293,216;  298,385
248,256;  306,720;  271,366;  274,105
248,347;  326,590;  309,785;  311,065
248,439;  296,930;  283,165;  282,675
248,531;  318,150;  303,885;  304,835
248,622;  320,280;  307,206;  308,325
248,714;  295,420;  276,945;  278,365
248,806;  308,520;  293,655;  298,015
248,897;  307,660;  291,535;  292,985
248,989;  279,100;  263,956;  263,855
249,081;  297,580;  283,355;  284,905
249,172;  308,720;  289,926;  295,135
249,264;  289,940;  272,076;  273,435
249,356;  288,310;  269,326;  273,745
249,447;  299,670;  282,176;  284,525
249,539;  298,480;  283,086;  284,645
249,630;  308,660;  289,875;  288,495
249,722;  333,550;  313,276;  315,395
249,813;  300,030;  280,496;  284,125
249,905;  308,940;  289,426;  293,665
249,997;  299,510;  281,445;  280,615
250,088;  307,130;  282,255;  288,985
250,180;  305,850;  283,695;  284,575
250,271;  301,020;  281,195;  280,335
250,363;  339,350;  319,105;  320,755
250,454;  295,340;  273,035;  275,615
250,546;  309,910;  285,926;  289,415
250,637;  282,430;  264,445;  261,845
250,729;  295,990;  266,505;  269,555
250,820;  318,970;  289,915;  292,965
250,912;  288,720;  262,355;  267,085
251,003;  303,560;  278,396;  280,475
251,095;  305,480;  282,086;  284,555
251,186;  297,220;  271,415;  274,775
251,277;  300,780;  271,986;  275,265
251,369;  305,670;  275,975;  275,105
251,460;  296,750;  271,456;  273,815
251,552;  311,980;  278,475;  279,655
251,643;  305,710;  268,796;  267,375
251,735;  306,560;  265,246;  267,375
251,826;  302,110;  258,016;  263,245
251,917;  331,180;  278,035;  279,115
252,009;  324,900;  273,396;  275,605
252,100;  334,980;  281,426;  283,345
252,191;  355,110;  289,996;  292,015
252,283;  346,010;  265,095;  267,705
252,374;  371,680;  278,296;  278,375
252,465;  398,810;  295,405;  298,605
252,557;  394,570;  283,576;  286,365
252,648;  391,100;  265,146;  268,635
252,739;  425,650;  280,516;  282,125
252,831;  421,220;  270,836;  280,355
252,922;  466,890;  282,296;  280,045
253,013;  510,130;  273,956;  284,285
253,104;  570,470;  270,076;  270,335
253,196;  687,260;  271,366;  271,175
253,287;  854,160;  281,836;  277,135
253,378; 1237,270;  276,276;  277,975
253,469; 3858,510;  272,385;  276,445
253,561;21891,160;  273,496;  278,855
253,652;43486,238;  282,266;  280,015
253,743; 6261,710;  276,216;  280,985
253,834;  623,290;  259,146;  265,875
253,926;  503,070;  262,605;  267,485
254,017;  484,320;  284,236;  290,235
254,108;  449,330;  291,836;  290,565
254,199;  433,630;  285,326;  291,185
254,290;  432,330;  312,725;  313,865
254,381;  419,260;  287,076;  291,155
254,472;  415,960;  291,935;  300,495
254,564;  412,920;  312,766;  307,565
254,655;  392,500;  304,755;  308,105
254,746;  352,280;  264,896;  264,025
254,837;  376,870;  293,105;  298,435
254,928;  357,190;  266,836;  271,975
255,019;  365,960;  283,505;  286,805
255,110;  373,070;  300,165;  301,665
255,201;  353,370;  281,155;  287,655
255,292;  382,830;  312,706;  316,275
255,383;  346,980;  275,785;  275,725
255,474;  339,590;  273,306;  273,095
255,566;  351,880;  283,926;  286,645
255,657;  347,570;  298,556;  302,445
255,748;  314,880;  271,415;  278,125
255,839;  323,650;  280,695;  282,485
255,930;  328,370;  287,866;  289,735
256,021;  335,430;  298,845;  298,115
256,112;  316,840;  278,456;  278,735
256,203;  343,860;  311,866;  313,365
256,294;  329,550;  293,496;  299,575
256,384;  310,070;  270,565;  275,715
256,475;  318,990;  290,996;  294,595
256,566;  311,030;  281,246;  287,825
256,657;  300,960;  278,945;  278,915
256,748;  300,600;  281,285;  284,675
256,839;  296,550;  274,426;  273,555
256,930;  303,850;  279,165;  283,055
257,021;  325,500;  304,155;  306,465
257,112;  324,580;  304,926;  309,235
257,203;  278,400;  258,445;  259,825
257,294;  275,150;  254,465;  262,175
257,385;  307,530;  288,526;  294,205
257,475;  296,320;  279,135;  278,545
257,566;  310,630;  287,586;  292,255
257,657;  290,190;  269,595;  270,025
257,748;  291,650;  275,935;  276,095
257,839;  299,570;  287,915;  286,025
257,930;  304,940;  285,736;  290,395
258,020;  284,970;  269,716;  271,535
258,111;  278,570;  262,225;  263,255
258,202;  305,350;  288,326;  289,935
258,293;  294,320;  284,655;  285,305
258,384;  318,830;  305,595;  307,665
258,474;  300,250;  288,676;  291,995
258,565;  287,320;  271,635;  273,435
258,656;  303,870;  292,966;  295,145
258,747;  287,970;  271,475;  275,425
258,837;  286,200;  274,246;  273,695
258,928;  292,190;  275,785;  278,605
259,019;  282,300;  268,415;  270,595
259,109;  279,850;  269,685;  269,425
259,200;  298,550;  286,105;  289,815
259,291;  279,030;  269,975;  271,655
259,381;  302,690;  293,026;  295,635
259,472;  306,400;  295,796;  296,545
259,563;  314,080;  303,065;  305,845
259,653;  289,640;  278,296;  281,385
259,744;  281,190;  268,826;  267,735
259,835;  313,200;  300,975;  302,815
259,925;  286,930;  271,505;  277,075
260,016;  295,820;  286,746;  287,585
260,107;  275,200;  258,035;  264,715
260,197;  295,970;  283,975;  286,325
260,288;  288,570;  274,565;  279,155
260,378;  281,220;  267,195;  271,275
260,469;  299,420;  285,915;  288,765
260,560;  279,740;  266,146;  269,495
260,650;  282,840;  271,736;  275,665
260,741;  284,600;  276,366;  279,035
260,831;  281,440;  272,855;  275,905
260,922;  274,200;  266,206;  269,545
261,012;  283,410;  277,665;  278,255
261,103;  311,230;  301,785;  302,875
261,193;  311,040;  302,086;  303,915
261,284;  276,550;  271,806;  273,005
261,374;  307,960;  296,385;  303,855
261,465;  296,070;  287,755;  289,435
261,555;  289,590;  282,255;  280,715
261,646;  301,470;  292,475;  294,375
261,736;  297,790;  287,435;  290,535
261,827;  293,580;  283,716;  284,935
261,917;  319,650;  311,736;  311,595
262,007;  295,930;  283,986;  288,075
262,098;  295,060;  289,445;  287,725
262,188;  333,540;  326,655;  333,475
262,279;  306,950;  300,185;  299,795
262,369;  298,440;  286,285;  289,225
262,459;  298,950;  288,246;  290,365
262,550;  308,830;  303,266;  301,565
262,640;  283,940;  273,005;  276,555
262,731;  302,580;  300,935;  299,335
262,821;  319,600;  310,535;  312,255
262,911;  307,280;  297,875;  298,285
263,002;  296,110;  289,625;  290,825
263,092;  314,150;  303,956;  306,295
263,182;  291,200;  284,806;  285,755
263,273;  291,960;  285,426;  289,395
263,363;  304,670;  300,746;  299,385
263,453;  276,590;  267,375;  268,605
263,543;  293,600;  289,815;  289,615
263,634;  270,810;  266,516;  266,365
263,724;  298,540;  292,586;  293,065
263,814;  315,130;  308,706;  308,885
263,904;  288,800;  281,966;  285,905
263,995;  328,760;  322,276;  322,325
264,085;  299,180;  295,855;  294,575
264,175;  302,230;  296,706;  296,385
264,265;  326,140;  321,105;  321,865
264,356;  277,880;  270,466;  274,385
264,446;  315,990;  308,996;  307,575
264,536;  301,260;  294,026;  297,515
264,626;  323,520;  318,486;  320,175
264,716;  305,630;  298,435;  303,275
264,806;  317,890;  308,776;  310,415
264,897;  262,660;  258,135;  258,615
264,987;  314,090;  303,535;  304,475
265,077;  315,790;  287,046;  292,545
265,167;  374,240;  310,216;  311,575
265,257;  334,990;  290,445;  290,535
265,347;  328,500;  294,336;  295,795
265,437;  320,490;  296,176;  300,635
265,527;  317,500;  293,155;  294,765
265,617;  289,720;  279,875;  285,145
265,708;  322,470;  314,216;  314,825
265,798;  309,150;  305,415;  307,055
265,888;  308,810;  300,716;  305,545
265,978;  297,440;  294,496;  295,825
266,068;  316,690;  310,155;  315,855
266,158;  299,010;  294,005;  297,205
266,248;  277,560;  274,016;  276,865
266,338;  314,480;  313,035;  314,815
266,428;  306,520;  300,635;  302,655
266,518;  318,720;  311,405;  315,615
266,608;  305,500;  299,725;  294,215
266,698;  278,900;  273,586;  276,245
266,788;  282,170;  274,456;  277,745
266,878;  332,000;  325,776;  330,865
266,968;  310,720;  306,725;  309,425
267,058;  301,520;  297,375;  302,895
267,147;  307,060;  301,845;  302,905
267,237;  301,380;  291,815;  295,765
267,327;  292,090;  286,755;  287,895
267,417;  307,090;  301,225;  303,385
267,507;  297,330;  292,176;  294,215
267,597;  287,400;  282,026;  283,655
267,687;  291,400;  285,165;  287,755
267,777;  289,450;  283,986;  284,615
267,867;  316,770;  312,125;  312,585
267,956;  306,870;  302,466;  304,005
268,046;  316,460;  305,466;  310,865
268,136;  301,780;  296,875;  298,905
268,226;  281,040;  274,885;  274,965
268,316;  286,730;  280,766;  280,845
268,406;  294,330;  289,516;  287,595
268,495;  289,760;  284,415;  287,935
268,585;  308,700;  306,716;  309,605
268,675;  287,820;  284,336;  285,535
268,765;  305,470;  296,355;  300,115
268,854;  290,920;  285,935;  286,715
268,944;  295,440;  291,646;  293,805
269,034;  289,010;  283,986;  289,715
269,124;  294,360;  287,216;  290,705
269,213;  287,360;  286,336;  285,525
269,303;  290,370;  290,466;  288,585
269,393;  305,410;  299,845;  298,345
269,483;  302,670;  300,966;  302,735
269,572;  288,330;  282,875;  284,665
269,662;  283,550;  276,105;  283,315
269,752;  318,600;  312,736;  315,705
269,841;  273,550;  266,046;  269,455
269,931;  287,850;  281,586;  283,075
270,021;  304,190;  300,766;  304,675
270,110;  292,730;  285,695;  288,925
270,200;  297,910;  291,665;  299,445
270,289;  284,130;  280,785;  281,105
270,379;  307,270;  301,466;  302,775
270,469;  298,960;  290,556;  289,955
270,558;  305,090;  303,655;  302,185
270,648;  287,810;  282,785;  284,885
270,737;  297,210;  288,526;  291,525
270,827;  317,520;  310,185;  313,455
270,916;  292,160;  286,935;  289,915
271,006;  296,980;  293,475;  292,885
271,096;  322,480;  317,005;  317,215
271,185;  293,740;  289,896;  289,145
271,275;  305,880;  300,706;  303,575
271,364;  286,470;  281,535;  285,725
271,454;  314,530;  308,255;  315,275
271,543;  302,180;  296,935;  297,745
271,633;  298,640;  293,926;  292,835
271,722;  297,670;  292,255;  296,455
271,812;  292,000;  286,296;  289,275
271,901;  295,700;  292,326;  293,765
271,990;  294,890;  291,836;  290,915
272,080;  297,860;  290,635;  294,915
272,169;  302,680;  301,905;  302,555
272,259;  297,700;  293,225;  292,695
272,348;  307,600;  305,796;  308,535
272,438;  296,490;  296,935;  293,635
272,527;  307,800;  303,996;  304,365
272,616;  305,940;  301,866;  305,295
272,706;  326,470;  320,935;  323,195
272,795;  317,310;  314,076;  315,755
272,884;  303,570;  297,076;  299,515
272,974;  322,990;  317,975;  319,965
273,063;  342,640;  338,206;  337,765
273,152;  309,140;  310,306;  307,735
273,242;  325,600;  320,276;  324,915
273,331;  324,370;  319,315;  322,835
273,420;  310,550;  301,105;  310,255
273,510;  314,500;  307,355;  308,155
273,599;  308,310;  303,255;  306,195
273,688;  307,960;  302,605;  301,885
273,778;  289,000;  285,065;  287,095
273,867;  320,260;  320,266;  317,015
273,956;  308,500;  303,725;  303,805
274,045;  280,340;  273,966;  275,965
274,135;  306,520;  303,905;  305,375
274,224;  292,670;  286,516;  290,045
274,313;  309,260;  305,586;  307,745
274,402;  286,950;  284,796;  287,085
274,491;  316,080;  310,975;  312,995
274,581;  305,280;  301,415;  302,765
274,670;  295,840;  293,146;  294,385
274,759;  305,590;  299,405;  300,435
274,848;  281,190;  276,655;  279,925
274,937;  292,560;  289,945;  287,635
275,026;  292,670;  285,616;  287,835
275,116;  322,870;  316,415;  315,805
275,205;  298,190;  266,926;  271,135
275,294;  329,710;  302,315;  304,335
275,383;  302,970;  299,905;  297,985
275,472;  295,360;  290,005;  290,825
275,561;  293,680;  290,505;  290,285
275,650;  312,330;  306,046;  306,435
275,739;  299,820;  294,776;  297,985
275,828;  276,470;  274,635;  277,965
275,917;  313,540;  312,065;  306,825
276,006;  302,160;  295,426;  296,835
276,095;  299,540;  294,526;  298,665
276,184;  308,930;  309,556;  307,945
276,273;  305,280;  303,105;  304,505
276,362;  279,650;  275,896;  278,535
276,451;  295,750;  291,306;  291,915
276,540;  298,620;  295,896;  296,105
276,629;  295,510;  292,576;  293,225
276,718;  274,930;  270,695;  274,545
276,807;  274,630;  271,625;  274,825
276,896;  287,820;  280,526;  284,495
276,985;  288,960;  283,616;  289,365
277,074;  305,920;  299,105;  300,525
277,163;  300,530;  294,746;  299,085
277,252;  281,740;  279,646;  276,465
277,341;  289,420;  281,236;  289,265
277,430;  283,530;  276,845;  279,355
277,519;  305,370;  298,956;  301,695
277,608;  270,760;  266,546;  267,775
277,696;  275,800;  266,975;  269,445
277,785;  286,690;  284,095;  283,485
277,874;  304,590;  299,605;  296,795
277,963;  293,520;  288,155;  289,995
278,052;  268,590;  264,776;  265,525
278,141;  294,810;  288,415;  290,745
278,229;  296,100;  290,146;  291,935
278,318;  273,110;  268,236;  271,495
278,407;  290,140;  285,576;  285,935
278,496;  292,880;  289,915;  291,965
278,585;  305,600;  300,486;  302,275
278,673;  271,620;  263,836;  266,715
278,762;  273,330;  266,176;  270,485
278,851;  292,270;  285,496;  286,035
278,940;  308,630;  303,685;  303,305
279,028;  301,070;  296,306;  299,585
279,117;  290,510;  282,725;  286,655
279,206;  286,620;  279,475;  284,105
279,294;  287,520;  284,396;  286,665
279,383;  291,600;  286,646;  287,335
279,472;  302,970;  298,095;  298,295
279,561;  285,700;  283,355;  284,975
279,649;  313,330;  308,535;  308,935
279,738;  262,040;  255,566;  255,215
279,827;  313,570;  306,785;  308,805
279,915;  278,380;  275,285;  276,335
280,004;  295,300;  286,565;  288,905
280,092;  311,040;  305,236;  306,635
280,181;  290,360;  280,516;  282,605
280,270;  295,180;  277,866;  281,595
280,358;  310,590;  291,366;  288,915
280,447;  271,460;  261,415;  264,455
280,535;  283,770;  276,016;  275,945
280,624;  283,720;  274,185;  276,805
280,713;  288,210;  277,146;  283,385
280,801;  301,930;  293,116;  293,805
280,890;  296,710;  289,716;  295,475
280,978;  286,000;  280,755;  281,945
281,067;  257,440;  250,676;  255,865
281,155;  280,790;  274,855;  275,705
281,244;  324,470;  313,595;  316,445
281,332;  298,330;  290,845;  293,825
281,421;  278,170;  271,605;  273,675
281,509;  291,280;  284,646;  282,415
281,598;  264,150;  262,435;  263,765
281,686;  296,230;  290,776;  288,945
281,775;  295,330;  285,516;  290,815
281,863;  282,730;  278,016;  279,225
281,951;  279,000;  267,665;  270,735
282,040;  312,230;  300,315;  301,115
282,128;  303,920;  288,375;  294,235
282,217;  279,060;  265,926;  266,075
282,305;  305,450;  294,796;  294,045
282,393;  293,400;  286,505;  284,595
282,482;  289,070;  279,535;  283,255
282,570;  277,430;  266,945;  270,215
282,658;  289,730;  276,116;  277,715
282,747;  280,680;  265,026;  267,905
282,835;  319,910;  306,076;  309,035
282,923;  273,350;  264,655;  267,805
283,012;  298,470;  291,366;  296,345
283,100;  277,020;  269,185;  274,675
283,188;  268,290;  261,125;  262,525
283,277;  290,630;  284,336;  284,745
283,365;  280,020;  271,676;  278,375
283,453;  272,750;  264,755;  270,455
283,542;  298,080;  290,896;  293,765
283,630;  282,700;  276,195;  278,595
283,718;  274,190;  271,195;  274,365
283,806;  249,260;  241,706;  247,485
283,894;  277,990;  274,336;  274,395
283,983;  289,860;  282,165;  282,605
284,071;  296,610;  285,285;  291,495
284,159;  313,040;  309,125;  314,805
284,247;  296,840;  287,466;  288,555
284,335;  292,880;  286,935;  287,485
284,424;  289,630;  283,915;  288,465
284,512;  287,840;  283,475;  286,175
284,600;  288,530;  279,415;  280,145
284,688;  320,350;  312,815;  317,115
284,776;  287,880;  286,815;  287,745
284,864;  316,580;  302,125;  308,655
284,952;  298,230;  289,625;  289,025
285,041;  298,550;  298,255;  298,145
285,129;  306,600;  299,435;  302,445
285,217;  306,280;  300,056;  303,885
285,305;  318,920;  318,676;  319,885
285,393;  282,300;  275,776;  278,695
285,481;  299,770;  296,665;  298,405
285,569;  289,280;  282,966;  285,145
285,657;  300,160;  295,165;  296,255
285,745;  296,300;  292,655;  293,125
285,833;  296,450;  289,505;  293,165
285,921;  304,130;  298,116;  300,945
286,009;  310,750;  301,105;  303,655
286,097;  302,110;  298,236;  301,315
286,185;  289,940;  284,405;  284,795
286,273;  282,950;  283,415;  284,655
286,361;  316,350;  307,915;  311,825
286,449;  301,500;  296,195;  294,565
286,537;  305,230;  304,105;  302,085
286,625;  298,180;  291,185;  293,415
286,713;  282,060;  275,806;  280,315
286,801;  313,630;  312,076;  307,795
286,889;  324,100;  319,435;  320,055
286,976;  294,030;  287,905;  291,205
287,064;  314,060;  307,635;  311,875
287,152;  307,170;  303,576;  305,585
287,240;  316,350;  309,185;  308,845
287,328;  288,060;  287,685;  281,755
287,416;  296,210;  290,975;  292,385
287,504;  302,800;  294,435;  298,285
287,591;  304,020;  298,176;  300,225
287,679;  289,470;  286,095;  286,145
287,767;  302,410;  298,206;  296,985
287,855;  310,490;  303,736;  307,515
287,943;  314,890;  306,716;  309,435
288,030;  294,880;  293,456;  291,795
288,118;  323,110;  318,255;  318,995
288,206;  282,400;  274,956;  275,705
288,294;  307,260;  301,986;  304,135
288,382;  307,440;  300,776;  303,615
288,469;  314,460;  304,396;  308,895
288,557;  295,850;  294,095;  292,615
288,645;  328,900;  323,396;  323,315
288,732;  279,200;  278,915;  279,235
288,820;  309,560;  304,576;  306,785
288,908;  308,670;  304,826;  303,915
288,995;  315,110;  310,945;  310,305
289,083;  298,810;  293,026;  292,935
289,171;  336,260;  320,165;  325,565
289,258;  371,680;  322,176;  324,305
289,346;  435,020;  326,266;  329,365
289,434;  313,650;  303,435;  306,185
289,521;  290,560;  280,415;  286,295
289,609;  325,500;  320,426;  325,405
289,697;  314,910;  312,336;  315,125
289,784;  299,770;  295,445;  295,775
289,872;  315,460;  306,905;  313,015
289,959;  287,850;  282,375;  283,415
290,047;  302,120;  296,546;  300,865
290,134;  277,430;  272,665;  273,815
290,222;  314,360;  308,915;  308,665
290,310;  310,670;  304,905;  307,145
290,397;  336,680;  328,505;  332,835
290,485;  292,450;  290,815;  293,005
290,572;  318,180;  313,225;  314,645
290,660;  308,760;  306,385;  306,205
290,747;  296,050;  295,165;  292,775
290,835;  303,690;  299,016;  302,505
290,922;  304,230;  304,016;  305,515
291,009;  302,650;  297,676;  301,715
291,097;  302,370;  297,926;  300,755
291,184;  334,230;  332,716;  338,585
291,272;  289,970;  282,966;  288,375
291,359;  288,950;  283,915;  289,305
291,447;  304,940;  303,086;  304,735
291,534;  325,760;  327,326;  323,005
291,621;  303,040;  302,845;  301,105
291,709;  290,150;  285,716;  283,705
291,796;  320,300;  320,146;  316,555
291,884;  298,160;  291,466;  296,115
291,971;  320,370;  315,065;  320,295
292,058;  294,310;  288,725;  288,985
292,146;  300,290;  293,746;  297,955
292,233;  289,650;  285,426;  284,765
292,320;  296,950;  294,306;  297,685
292,408;  314,790;  309,086;  308,565
292,495;  302,830;  290,565;  293,085
292,582;  292,900;  286,845;  287,375
292,669;  285,640;  281,415;  286,055
292,757;  284,790;  282,176;  283,865
292,844;  313,370;  312,935;  313,175
292,931;  282,580;  275,176;  277,485
293,018;  298,680;  291,516;  289,915
293,106;  303,280;  299,966;  303,035
293,193;  274,040;  272,415;  274,385
293,280;  304,740;  297,255;  303,635
293,367;  297,410;  296,956;  295,215
293,455;  295,410;  293,185;  294,155
293,542;  283,390;  275,695;  281,445
293,629;  284,950;  279,035;  281,855
293,716;  311,740;  305,646;  311,195
293,803;  289,880;  287,105;  287,695
293,890;  312,700;  310,336;  312,555
293,978;  292,130;  284,105;  290,755
294,065;  289,730;  286,725;  284,345
294,152;  306,220;  302,385;  304,355
294,239;  278,800;  275,646;  274,625
294,326;  289,780;  286,746;  290,635
294,413;  283,980;  278,046;  278,465
294,500;  298,150;  292,586;  295,255
294,587;  288,190;  283,915;  287,195
294,674;  311,300;  305,875;  306,925
294,761;  292,850;  288,896;  287,945
294,848;  292,280;  286,866;  294,115
294,935;  293,110;  290,746;  290,555
295,022;  277,110;  272,396;  274,105
295,109;  264,300;  258,466;  262,665
295,196;  298,760;  291,405;  295,265
295,283;  281,270;  281,176;  278,745
295,370;  316,350;  308,975;  312,155
295,457;  290,670;  289,986;  290,435
295,544;  290,060;  285,105;  287,985
295,631;  296,830;  290,165;  295,805
295,718;  275,110;  272,676;  274,015
295,805;  300,630;  296,225;  296,685
295,892;  303,370;  300,005;  304,445
295,979;  301,670;  291,266;  292,755
296,066;  304,120;  293,996;  296,145
296,153;  304,650;  296,026;  296,355
296,240;  310,470;  299,206;  300,535
296,327;  296,780;  285,206;  285,615
296,413;  319,550;  301,285;  305,075
296,500;  339,730;  302,755;  305,145
296,587;  515,000;  288,616;  286,065
296,674; 1654,940;  294,396;  297,335
296,761;  803,890;  300,095;  298,245
296,848;  305,470;  281,956;  285,815
296,934;  302,260;  290,966;  295,265
297,021;  299,580;  292,565;  292,975
297,108;  284,290;  276,366;  280,895
297,195;  291,980;  291,466;  294,705
297,282;  293,010;  286,535;  286,195
297,368;  314,470;  310,026;  305,975
297,455;  288,490;  279,155;  283,145
297,542;  317,040;  311,375;  313,235
297,629;  302,480;  299,016;  300,205
297,715;  312,930;  308,285;  310,385
297,802;  306,360;  300,466;  303,285
297,889;  315,320;  311,716;  313,025
297,975;  331,270;  322,836;  323,685
298,062;  320,120;  310,505;  312,995
298,149;  280,100;  273,505;  274,905
298,235;  295,720;  291,135;  294,075
298,322;  298,760;  294,806;  292,785
298,409;  315,320;  311,195;  312,715
298,495;  288,700;  285,435;  283,435
298,582;  314,590;  307,516;  308,065
298,669;  295,760;  290,526;  294,245
298,755;  301,450;  299,065;  302,235
298,842;  307,920;  304,755;  309,095
298,928;  306,510;  303,855;  304,595
299,015;  298,260;  294,896;  296,705
299,102;  322,280;  318,986;  320,565
299,188;  319,570;  315,956;  316,045
299,275;  313,300;  309,926;  309,365
299,361;  284,370;  278,875;  281,665
299,448;  315,310;  312,466;  310,885
299,534;  314,970;  312,355;  312,735
299,621;  309,500;  304,655;  303,865
299,707;  306,320;  299,016;  304,675
299,794;  322,920;  319,885;  319,685
299,880;  324,340;  317,076;  318,325
299,967;  300,780;  296,345;  296,295
300,053;  299,940;  295,935;  299,065
300,140;  330,450;  323,086;  328,875
300,226;  314,820;  313,885;  313,595
300,312;  312,880;  307,276;  306,695
300,399;  313,060;  305,505;  308,465
300,485;  304,110;  297,776;  301,725
300,572;  281,360;  281,655;  281,655
300,658;  295,690;  297,216;  294,585
300,744;  310,170;  310,706;  311,315
300,831;  318,110;  313,595;  318,275
300,917;  325,870;  321,676;  320,915
301,004;  315,400;  311,556;  311,015
301,090;  282,540;  277,785;  280,095
301,176;  288,720;  284,255;  288,205
301,263;  317,270;  313,676;  314,925
301,349;  293,140;  289,475;  293,305
301,435;  286,710;  284,276;  285,095
301,521;  318,730;  314,625;  313,245
301,608;  318,770;  314,695;  315,515
301,694;  301,210;  297,896;  300,535
301,780;  303,760;  303,046;  298,285
301,867;  288,320;  280,836;  285,265
301,953;  310,740;  296,595;  301,165
302,039;  385,190;  295,116;  297,515
302,125;  541,300;  298,445;  304,125
302,211;  363,320;  332,926;  334,115
302,298;  353,390;  301,926;  305,295
302,384;  301,090;  281,116;  287,095
302,470;  296,080;  289,505;  291,305
302,556;  307,410;  301,935;  305,645
302,642;  299,800;  293,456;  295,155
302,729;  301,030;  289,306;  293,525
302,815;  319,040;  317,966;  319,775
302,901;  294,770;  296,475;  298,745
302,987;  312,250;  307,716;  308,245
303,073;  304,490;  304,185;  302,795
303,159;  300,410;  296,945;  298,695
303,245;  290,700;  284,336;  290,495
303,331;  288,890;  283,486;  286,455
303,417;  299,560;  294,556;  296,145
303,503;  314,690;  310,046;  312,155
303,590;  293,620;  289,146;  291,705
303,676;  302,590;  299,505;  300,385
303,762;  292,470;  287,185;  287,835
303,848;  312,390;  311,026;  312,055
303,934;  308,450;  304,915;  307,775
304,020;  306,460;  301,796;  304,745
304,106;  315,080;  309,975;  314,015
304,192;  298,360;  291,796;  296,765
304,278;  307,670;  302,896;  304,455
304,364;  328,520;  323,026;  324,755
304,450;  306,920;  301,496;  304,095
304,535;  306,150;  304,005;  304,245
304,621;  306,230;  301,565;  302,205
304,707;  308,570;  306,296;  307,635
304,793;  320,550;  318,625;  318,575
304,879;  310,020;  306,776;  310,585
304,965;  316,470;  312,845;  313,365
305,051;  311,260;  308,616;  311,355
305,137;  322,530;  318,146;  324,235
305,223;  294,460;  291,445;  293,725
305,309;  318,670;  313,496;  317,755
305,394;  311,270;  311,996;  311,465
305,480;  302,510;  299,426;  304,775
305,566;  308,650;  309,355;  310,525
305,652;  316,040;  313,605;  317,885
305,738;  354,030;  349,206;  353,435
305,824;  316,100;  316,016;  315,095
305,909;  324,650;  323,815;  325,155
305,995;  290,490;  289,595;  290,025
306,081;  351,390;  348,345;  350,435
306,167;  308,110;  303,966;  307,875
306,252;  325,340;  324,375;  325,505
306,338;  337,720;  331,366;  335,515
306,424;  310,920;  306,595;  307,415
306,510;  321,990;  316,105;  319,795
306,595;  322,350;  323,685;  322,125
306,681;  318,740;  316,926;  318,895
306,767;  309,450;  305,336;  309,425
306,852;  333,440;  328,255;  331,375
306,938;  326,030;  325,796;  325,905
307,024;  302,630;  302,875;  304,755
307,109;  341,410;  336,065;  338,965
307,195;  316,070;  316,326;  318,385
307,281;  319,340;  318,716;  318,575
307,366;  316,130;  313,345;  310,455
307,452;  317,820;  312,426;  316,335
307,537;  299,790;  296,776;  298,485
307,623;  296,080;  292,105;  296,985
307,709;  312,130;  309,885;  310,795
307,794;  292,330;  288,576;  291,835
307,880;  324,280;  320,236;  319,735
307,965;  309,790;  307,456;  307,525
308,051;  298,080;  297,195;  298,065
308,136;  298,510;  297,165;  296,745
308,222;  304,750;  300,366;  302,045
308,307;  298,710;  295,116;  296,645
308,393;  295,990;  295,535;  300,335
308,478;  322,870;  321,826;  318,975
308,564;  293,160;  295,516;  288,925
308,649;  307,900;  308,496;  308,295
308,735;  307,010;  294,155;  300,535
308,820;  323,770;  320,655;  319,455
308,906;  302,800;  291,625;  300,515
308,991;  341,990;  341,076;  338,375
309,076;  321,520;  319,336;  320,645
309,162;  285,650;  283,945;  283,805
309,247;  312,260;  309,945;  308,415
309,333;  300,270;  291,646;  297,855
309,418;  302,490;  298,665;  301,955
309,503;  301,910;  297,646;  300,235
309,589;  307,310;  303,725;  305,345
309,674;  291,280;  290,945;  289,235
309,759;  305,940;  303,315;  304,195
309,845;  314,100;  311,016;  312,415
309,930;  308,850;  305,966;  307,375
310,015;  278,290;  276,095;  276,835
310,101;  315,640;  315,616;  319,905
310,186;  290,090;  285,426;  288,565
310,271;  301,320;  297,296;  298,295
310,357;  300,220;  297,526;  296,455
310,442;  309,250;  302,445;  303,865
310,527;  302,430;  297,766;  301,125
310,612;  279,960;  278,195;  281,425
310,698;  319,410;  319,725;  321,135
310,783;  306,720;  301,176;  302,685
310,868;  296,400;  294,285;  295,125
310,953;  287,430;  284,165;  285,195
311,038;  315,770;  311,146;  310,075
311,124;  295,610;  294,635;  290,925
311,209;  283,930;  276,736;  277,355
311,294;  318,860;  310,206;  312,575
311,379;  277,990;  276,785;  277,345
311,464;  303,240;  297,405;  297,635
311,549;  288,410;  282,385;  284,505
311,634;  291,490;  290,396;  286,805
311,719;  321,030;  316,016;  315,415
311,805;  296,710;  289,266;  291,605
311,890;  304,270;  295,165;  295,925
311,975;  296,200;  281,526;  286,055
312,060;  312,880;  298,146;  302,435
312,145;  295,110;  277,586;  276,025
312,230;  317,520;  290,815;  296,495
312,315;  334,400;  294,065;  296,045
312,400;  402,850;  296,396;  299,795
312,485; 1578,140;  290,535;  292,475
312,570; 1257,960;  277,125;  279,615
312,655;  351,570;  308,176;  313,325
312,740;  333,640;  301,616;  302,005
312,825;  338,300;  304,105;  307,725
312,910;  360,150;  307,736;  309,235
312,995;  443,810;  296,236;  298,245
313,080; 1965,120;  285,655;  286,805
313,165; 2181,290;  303,565;  305,305
313,250;  365,920;  287,276;  287,825
313,335;  324,850;  307,435;  312,125
313,419;  282,310;  267,466;  268,635
313,504;  327,820;  313,355;  315,225
313,589;  306,310;  295,216;  297,545
313,674;  318,120;  307,206;  310,085
313,759;  289,400;  281,556;  282,625
313,844;  300,490;  292,776;  291,005
313,929;  301,070;  289,945;  291,695
314,014;  322,140;  313,306;  315,005
314,098;  308,900;  299,035;  300,425
314,183;  269,460;  263,505;  263,795
314,268;  302,020;  296,496;  298,955
314,353;  307,240;  302,026;  306,185
314,438;  314,000;  306,905;  311,515
314,522;  315,320;  309,486;  308,535
314,607;  312,680;  307,565;  307,855
314,692;  305,500;  301,885;  303,855
314,777;  295,700;  291,766;  292,395
314,861;  280,510;  277,285;  276,385
314,946;  318,280;  315,116;  317,565
315,031;  296,040;  291,875;  294,115
315,115;  310,010;  306,206;  308,065
315,200;  317,370;  312,146;  313,065
315,285;  294,180;  289,486;  289,595
315,369;  288,760;  287,945;  288,545
315,454;  316,960;  311,905;  311,025
315,539;  312,770;  310,246;  307,795
315,623;  309,540;  309,426;  313,225
315,708;  341,560;  335,605;  336,825
315,793;  301,970;  297,986;  298,155
315,877;  308,200;  302,975;  305,445
315,962;  293,270;  289,105;  291,925
316,046;  322,490;  317,065;  319,225
316,131;  337,300;  334,516;  337,215
316,216;  310,640;  310,315;  310,785
316,300;  305,340;  303,345;  302,165
316,385;  326,420;  325,315;  324,305
316,469;  332,160;  330,625;  331,955
316,554;  301,180;  296,005;  298,425
316,638;  301,060;  296,725;  301,565
316,723;  296,010;  292,546;  293,795
316,807;  299,700;  299,595;  299,275
316,892;  293,140;  288,975;  289,925
316,976;  317,600;  314,405;  316,505
317,061;  310,650;  306,035;  305,965
317,145;  328,220;  327,655;  325,965
317,230;  322,010;  321,505;  319,905
317,314;  277,610;  275,565;  275,085
317,398;  313,170;  310,706;  312,245
317,483;  289,100;  290,026;  291,085
317,567;  317,980;  315,326;  317,865
317,652;  285,200;  283,526;  286,625
317,736;  312,100;  308,776;  309,285
317,820;  335,010;  329,005;  334,665
317,905;  306,200;  306,706;  307,035
317,989;  296,820;  298,285;  300,875
318,073;  295,850;  298,076;  297,705
318,158;  291,970;  284,966;  285,565
318,242;  302,080;  296,845;  299,095
318,326;  285,640;  283,155;  284,015
318,411;  298,660;  295,125;  296,565
318,495;  289,440;  285,776;  287,165
318,579;  292,770;  288,746;  289,305
318,664;  284,460;  280,315;  284,255
318,748;  305,900;  305,996;  310,145
318,832;  295,510;  290,806;  289,475
318,916;  277,070;  274,785;  277,335
319,001;  298,740;  299,945;  301,485
319,085;  295,990;  292,885;  290,905
319,169;  296,380;  293,396;  294,485
319,253;  292,010;  287,216;  285,525
319,337;  306,510;  306,246;  304,885
319,422;  314,250;  316,125;  313,225
319,506;  286,330;  283,326;  285,905
319,590;  309,620;  303,915;  305,525
319,674;  297,090;  291,926;  295,405
319,758;  302,600;  295,165;  300,215
319,842;  309,620;  306,135;  309,155
319,926;  296,460;  294,815;  295,205
320,010;  269,450;  267,046;  269,575
320,095;  285,840;  280,926;  284,685
320,179;  281,610;  279,125;  281,175
320,263;  287,130;  277,385;  285,805
320,347;  276,660;  271,296;  279,075
320,431;  278,670;  273,435;  274,355
320,515;  299,200;  296,375;  299,935
320,599;  275,060;  269,866;  273,825
320,683;  310,260;  305,706;  305,495
320,767;  269,810;  266,236;  266,205
320,851;  287,560;  281,855;  287,785
320,935;  318,000;  312,565;  318,275
321,019;  298,550;  292,975;  290,075
321,103;  279,110;  278,135;  280,585
321,187;  276,200;  273,165;  273,265
321,271;  292,050;  294,616;  296,825
321,355;  283,680;  281,595;  283,805
321,439;  304,050;  301,216;  301,725
321,523;  279,500;  282,266;  284,705
321,606;  290,350;  287,426;  288,215
321,690;  288,880;  287,026;  288,215
321,774;  292,650;  288,336;  292,205
321,858;  291,090;  292,966;  291,945
321,942;  298,160;  294,276;  298,975
322,026;  286,010;  283,315;  282,695
322,110;  297,280;  293,146;  295,755
322,194;  300,980;  295,355;  301,055
322,277;  289,040;  286,135;  287,285
322,361;  282,090;  278,595;  281,215
322,445;  292,140;  289,315;  291,095
322,529;  300,330;  297,716;  299,645
322,613;  299,610;  297,206;  297,795
322,696;  273,960;  267,695;  272,865
322,780;  285,260;  283,026;  283,485
322,864;  281,040;  272,625;  279,835
322,948;  300,050;  292,326;  295,965
323,031;  282,300;  281,565;  282,215
323,115;  287,280;  284,586;  285,215
323,199;  298,690;  296,565;  299,105
323,282;  312,770;  307,496;  310,065
323,366;  288,330;  287,296;  293,625
323,450;  278,310;  273,496;  275,835
323,533;  315,470;  314,576;  317,415
323,617;  272,490;  268,695;  271,585
323,701;  286,140;  281,105;  283,575
323,784;  295,780;  292,576;  294,205
323,868;  297,800;  297,866;  299,875
323,952;  294,530;  290,966;  294,175
324,035;  309,480;  305,926;  310,825
324,119;  298,550;  295,466;  298,455
324,202;  291,710;  286,836;  292,745
324,286;  289,480;  284,986;  286,605
324,370;  296,670;  293,105;  296,765
324,453;  302,840;  299,616;  301,745
324,537;  295,720;  294,426;  298,035
324,620;  288,070;  286,635;  291,765
324,704;  276,430;  270,445;  276,525
324,787;  294,990;  294,875;  296,265
324,871;  311,620;  310,986;  315,255
324,954;  316,940;  312,246;  315,985
325,038;  307,320;  306,466;  306,985
325,121;  313,690;  308,695;  312,075
325,205;  292,190;  290,396;  293,295
325,288;  284,500;  279,556;  285,675
325,371;  300,560;  298,945;  302,395
325,455;  313,940;  314,026;  312,045
325,538;  292,390;  281,516;  287,185
325,622;  327,370;  320,806;  321,295
325,705;  296,770;  297,716;  298,675
325,788;  312,150;  313,625;  316,645
325,872;  301,440;  300,796;  300,745
325,955;  325,650;  319,845;  325,065
326,039;  311,800;  309,576;  312,795
326,122;  311,740;  310,746;  311,665
326,205;  314,260;  311,806;  310,235
326,289;  318,910;  313,986;  319,245
326,372;  303,380;  294,746;  299,195
326,455;  326,480;  323,095;  324,405
326,538;  317,590;  312,336;  316,545
326,622;  323,650;  318,396;  320,075
326,705;  293,450;  287,315;  287,875
326,788;  325,130;  321,266;  322,405
326,871;  322,910;  315,576;  317,965
326,955;  316,350;  313,836;  315,225
327,038;  313,170;  310,116;  310,855
327,121;  307,420;  301,516;  307,855
327,204;  316,410;  313,216;  314,045
327,288;  331,030;  328,956;  332,375
327,371;  293,210;  288,185;  296,955
327,454;  317,670;  313,065;  313,845
327,537;  301,390;  299,815;  302,435
327,620;  331,040;  322,935;  330,145
327,703;  312,070;  309,076;  310,615
327,786;  312,640;  311,076;  312,115
327,870;  327,350;  323,155;  328,715
327,953;  304,620;  301,155;  305,785
328,036;  292,870;  293,105;  299,035
328,119;  324,350;  317,576;  321,135
328,202;  306,760;  301,885;  305,875
328,285;  330,180;  326,776;  329,015
328,368;  320,320;  320,935;  322,625
328,451;  324,650;  320,635;  322,565
328,534;  307,610;  301,266;  307,075
328,617;  311,980;  305,676;  311,785
328,700;  330,260;  326,505;  326,695
328,783;  323,720;  320,785;  322,875
328,866;  318,800;  314,095;  319,935
328,949;  324,430;  319,966;  326,555
329,032;  301,820;  297,826;  300,605
329,115;  294,960;  290,905;  295,945
329,198;  285,710;  282,956;  283,785
329,281;  300,560;  299,336;  298,465
329,364;  319,860;  316,246;  319,245
329,447;  309,370;  307,176;  309,255
329,530;  332,240;  328,155;  328,175
329,613;  303,410;  300,565;  306,725
329,696;  331,050;  326,806;  330,715
329,778;  317,550;  311,306;  316,915
329,861;  300,770;  295,236;  299,565
329,944;  326,980;  321,685;  327,225
330,027;  315,720;  311,576;  315,115
330,110;  311,870;  307,595;  311,705
330,193;  298,550;  295,306;  299,955
330,275;  318,690;  312,296;  315,835
330,358;  297,770;  291,776;  296,185
330,441;  324,720;  323,586;  325,365
330,524;  310,250;  305,216;  311,095
330,607;  304,990;  304,345;  306,905
330,689;  313,960;  313,105;  314,535
330,772;  312,630;  311,105;  312,425
330,855;  326,400;  325,065;  327,855
330,938;  320,920;  312,315;  321,275
331,020;  317,920;  317,176;  320,535
331,103;  299,980;  293,035;  294,505
331,186;  310,620;  305,146;  307,085
331,268;  297,620;  293,565;  298,695
331,351;  316,220;  313,026;  316,455
331,434;  312,450;  308,385;  312,645
331,516;  320,180;  319,076;  321,185
331,599;  302,270;  297,095;  301,425
331,682;  311,580;  310,736;  310,985
331,764;  297,030;  293,326;  297,915
331,847;  319,690;  313,716;  315,705
331,929;  294,600;  290,026;  293,225
332,012;  313,110;  309,625;  310,055
332,095;  326,210;  323,306;  326,625
332,177;  322,860;  320,806;  324,285
332,260;  328,050;  327,526;  328,035
332,342;  314,560;  309,246;  314,445
332,425;  312,840;  312,516;  311,505
332,507;  313,080;  308,526;  311,575
332,590;  292,060;  287,595;  291,655
332,672;  296,390;  294,885;  298,455
332,755;  308,700;  306,855;  311,605
332,837;  310,510;  310,716;  312,255
332,920;  310,660;  309,076;  315,155
333,002;  330,880;  325,676;  328,895
333,085;  314,860;  313,375;  315,165
333,167;  301,120;  296,875;  298,575
333,249;  297,830;  294,526;  298,145
333,332;  293,880;  293,296;  297,715
333,414;  305,430;  300,035;  304,875
333,497;  308,290;  300,255;  302,305
333,579;  305,030;  300,996;  306,375
333,661;  320,600;  319,706;  320,745
333,744;  297,520;  293,695;  297,125
333,826;  308,840;  305,766;  306,065
333,908;  319,220;  313,896;  316,665
333,991;  308,480;  291,266;  291,545
334,073;  468,120;  312,706;  318,525
334,155;  357,090;  304,086;  305,525
334,238;  324,780;  318,576;  326,145
334,320;  301,090;  297,046;  300,585
334,402;  308,840;  302,996;  304,895
334,485;  304,890;  303,655;  304,015
334,567;  299,580;  299,776;  301,975
334,649;  284,010;  278,426;  282,925
334,731;  315,210;  313,456;  317,305
334,813;  317,480;  315,605;  320,355
334,896;  293,990;  290,185;  294,595
334,978;  304,400;  309,165;  302,585
335,060;  309,250;  304,255;  304,235
335,142;  303,000;  301,665;  302,275
335,224;  313,650;  309,766;  311,745
335,307;  297,060;  297,456;  298,965
335,389;  316,890;  310,385;  317,305
335,471;  304,510;  299,896;  306,115
335,553;  323,950;  319,866;  318,905
335,635;  316,670;  312,836;  315,315
335,717;  304,100;  298,195;  300,145
335,799;  324,420;  322,695;  323,585
335,881;  283,500;  278,385;  282,845
335,963;  292,730;  291,796;  293,005
336,045;  298,240;  295,516;  301,085
336,128;  276,930;  270,945;  275,225
336,210;  290,590;  288,996;  292,295
336,292;  301,350;  297,845;  300,615
336,374;  308,430;  300,956;  306,155
336,456;  290,090;  285,616;  288,495
336,538;  305,720;  303,165;  304,435
336,620;  312,200;  310,576;  312,205
336,702;  296,280;  294,766;  294,235
336,783;  308,290;  302,556;  304,225
336,865;  308,970;  304,176;  305,725
336,947;  309,550;  308,486;  311,205
337,029;  286,290;  281,826;  282,945
337,111;  318,890;  316,266;  316,735
337,193;  284,390;  280,986;  284,795
337,275;  313,720;  310,815;  314,535
337,357;  323,550;  318,815;  324,805
337,439;  307,980;  305,255;  310,655
337,521;  276,990;  277,225;  280,915
337,602;  301,290;  298,435;  301,085
337,684;  320,570;  315,635;  317,455
337,766;  313,590;  312,266;  312,305
337,848;  299,260;  295,086;  301,025
337,930;  302,750;  303,165;  306,525
338,012;  301,020;  298,586;  299,555
338,093;  315,690;  312,396;  315,895
338,175;  322,360;  318,195;  321,575
338,257;  309,140;  306,945;  309,225
338,339;  296,030;  294,086;  300,165
338,420;  313,230;  310,986;  310,895
338,502;  300,790;  298,836;  304,265
338,584;  287,130;  286,736;  289,235
338,666;  303,590;  303,426;  302,365
338,747;  332,130;  330,806;  334,875
338,829;  308,160;  309,176;  309,265
338,911;  296,380;  296,236;  298,915
338,992;  293,800;  295,746;  294,435
339,074;  305,290;  306,155;  307,855
339,156;  300,980;  298,176;  303,395
339,237;  328,650;  325,035;  327,765
339,319;  299,610;  294,935;  300,045
339,400;  310,480;  309,065;  311,225
339,482;  275,510;  278,165;  280,605
339,564;  314,020;  317,026;  316,575
339,645;  306,290;  304,595;  308,105
339,727;  294,900;  290,216;  294,375
339,808;  324,190;  317,685;  322,555
339,890;  303,550;  299,956;  302,415
339,971;  317,250;  307,016;  315,055
340,053;  335,980;  336,746;  335,255
340,134;  297,300;  296,535;  298,415
340,216;  319,030;  315,556;  319,645
340,297;  301,830;  298,396;  301,525
340,379;  315,040;  314,736;  316,975
340,460;  310,160;  306,685;  306,615
340,542;  295,700;  294,535;  297,775
340,623;  312,670;  307,926;  312,435
340,705;  301,490;  297,516;  295,795
340,786;  289,990;  289,685;  291,925
340,868;  305,670;  308,826;  304,055
340,949;  284,040;  285,605;  286,145
341,030;  328,270;  321,435;  328,715
341,112;  283,600;  280,565;  284,075
341,193;  274,440;  270,135;  273,595
341,274;  320,240;  322,176;  320,965
341,356;  326,610;  320,716;  321,795
341,437;  300,450;  301,635;  300,825
341,518;  313,010;  307,176;  314,795
341,600;  322,090;  320,866;  322,465
341,681;  328,220;  328,866;  332,375
341,762;  325,810;  325,206;  323,705
341,844;  290,250;  287,146;  292,185
341,925;  312,890;  308,225;  311,205
342,006;  320,240;  320,426;  323,055
342,087;  296,910;  288,095;  292,095
342,169;  309,140;  307,026;  309,845
342,250;  289,230;  286,935;  285,935
342,331;  299,890;  298,706;  299,075
342,412;  310,890;  307,655;  310,045
342,493;  293,050;  289,415;  293,325
342,575;  327,110;  327,095;  327,355
342,656;  316,400;  318,466;  318,265
342,737;  332,350;  329,836;  330,295
342,818;  309,520;  307,996;  309,015
342,899;  315,090;  314,505;  317,165
342,980;  309,700;  306,695;  310,155
343,061;  307,430;  303,065;  304,715
343,143;  322,950;  319,535;  319,565
343,224;  309,770;  306,706;  305,915
343,305;  302,550;  299,625;  303,115
343,386;  302,660;  297,996;  300,475
343,467;  304,590;  303,155;  305,535
343,548;  308,300;  304,176;  305,935
343,629;  320,020;  316,405;  317,625
343,710;  322,550;  322,766;  321,015
343,791;  326,410;  325,065;  327,935
343,872;  300,500;  298,975;  297,795
343,953;  316,670;  314,826;  316,625
344,034;  325,350;  319,475;  324,485
344,115;  311,040;  304,255;  303,425
344,196;  299,770;  298,935;  302,165
344,277;  294,860;  293,306;  294,615
344,358;  309,040;  304,755;  307,345
344,439;  296,150;  293,975;  294,205
344,520;  300,900;  298,546;  300,975
344,601;  313,230;  314,646;  315,525
344,681;  306,650;  302,426;  303,825
344,762;  286,890;  283,466;  287,625
344,843;  278,450;  275,996;  281,125
344,924;  306,680;  303,635;  306,085
345,005;  291,270;  287,176;  288,725
345,086;  309,900;  307,665;  309,725
345,167;  293,390;  293,986;  295,575
345,247;  327,580;  323,896;  328,905
345,328;  319,950;  315,315;  317,705
345,409;  309,320;  307,056;  309,355
345,490;  311,940;  308,415;  314,245
345,571;  309,550;  304,875;  312,045
345,651;  283,840;  279,456;  279,055
345,732;  307,500;  307,285;  312,275
345,813;  315,440;  311,836;  317,355
345,894;  285,960;  285,785;  287,595
345,974;  307,760;  309,556;  311,845
346,055;  297,110;  296,435;  295,735
346,136;  304,800;  304,405;  306,245
346,216;  325,460;  324,945;  328,565
346,297;  307,600;  306,565;  304,225
346,378;  292,470;  291,996;  294,005
346,458;  312,560;  307,375;  313,405
346,539;  303,770;  302,306;  305,975
346,620;  306,480;  305,815;  306,685
346,700;  286,310;  288,755;  289,765
346,781;  288,300;  284,556;  286,765
346,861;  306,370;  304,336;  307,325
346,942;  303,610;  304,336;  302,715
347,023;  318,950;  317,885;  316,005
347,103;  298,110;  297,396;  302,825
347,184;  299,010;  294,475;  296,785
347,264;  295,660;  294,565;  296,805
347,345;  290,380;  290,526;  295,525
347,425;  289,300;  285,125;  290,565
347,506;  285,460;  283,595;  283,195
347,586;  293,390;  289,725;  292,435
347,667;  306,700;  307,616;  304,445
347,747;  313,260;  311,116;  310,775
347,828;  298,650;  296,486;  296,465
347,908;  307,580;  303,306;  307,175
347,988;  301,460;  298,655;  306,125
348,069;  312,090;  311,056;  311,395
348,149;  311,150;  303,956;  309,065
348,230;  310,300;  309,956;  310,945
348,310;  285,330;  284,185;  285,715
348,390;  288,550;  288,526;  288,625
348,471;  306,370;  303,665;  305,125
348,551;  291,070;  290,695;  293,935
348,632;  292,870;  289,505;  294,065
348,712;  291,940;  292,706;  295,115
348,792;  330,490;  329,836;  329,985
348,873;  281,920;  281,905;  283,045
348,953;  291,060;  289,845;  290,395
349,033;  298,790;  297,466;  299,465
349,113;  291,070;  286,076;  286,905
349,194;  305,030;  301,595;  304,825
349,274;  306,460;  304,796;  307,395
349,354;  306,250;  303,046;  308,435
349,434;  305,560;  300,116;  301,925
349,515;  323,000;  316,486;  322,185
349,595;  305,380;  302,206;  302,035
349,675;  311,160;  305,635;  308,015
349,755;  299,420;  296,746;  297,615
349,835;  306,600;  301,195;  307,695
349,916;  299,950;  298,435;  303,915
349,996;  293,360;  291,105;  291,745
350,076;  315,900;  312,375;  317,645
350,156;  287,720;  284,836;  287,665
350,236;  314,910;  314,116;  311,925
350,316;  297,480;  292,975;  295,765
350,396;  308,980;  305,646;  310,065
350,476;  304,650;  301,826;  304,275
350,556;  300,180;  293,966;  299,935
350,637;  322,830;  321,005;  321,825
350,717;  292,500;  288,445;  291,825
350,797;  305,200;  302,616;  305,905
350,877;  296,470;  289,875;  294,705
350,957;  299,470;  297,635;  300,095
351,037;  304,730;  298,556;  303,455
351,117;  295,920;  296,276;  296,555
351,197;  305,070;  303,366;  306,305
351,277;  302,160;  300,556;  301,575
351,357;  313,110;  308,806;  314,445
351,437;  309,880;  306,105;  307,755
351,516;  317,240;  317,986;  318,355
351,596;  295,980;  292,896;  296,025
351,676;  296,490;  290,405;  294,265
351,756;  328,300;  323,426;  326,135
351,836;  315,500;  313,866;  317,935
351,916;  300,950;  297,905;  298,975
351,996;  304,890;  303,996;  305,265
352,076;  303,560;  303,486;  303,085
352,156;  323,140;  319,556;  320,405
352,235;  302,040;  301,255;  300,955
352,315;  313,220;  312,456;  314,415
352,395;  309,770;  308,206;  309,425
352,475;  316,410;  315,405;  320,955
352,555;  331,220;  330,236;  330,635
352,634;  324,840;  321,956;  326,705
352,714;  305,870;  302,595;  304,055
352,794;  353,930;  354,466;  358,075
352,874;  316,370;  314,685;  317,555
352,953;  337,140;  337,676;  339,095
353,033;  323,390;  319,306;  320,925
353,113;  337,030;  332,135;  336,575
353,193;  328,630;  328,046;  329,935
353,272;  334,400;  333,135;  334,365
353,352;  312,650;  307,035;  311,285
353,432;  341,750;  343,005;  347,495
353,511;  328,780;  326,185;  330,665
353,591;  362,460;  361,616;  362,555
353,671;  332,380;  331,926;  333,015
353,750;  333,490;  332,296;  331,275
353,830;  316,740;  313,646;  317,015
353,909;  341,330;  339,836;  343,655
353,989;  316,190;  317,385;  320,255
354,069;  319,800;  319,456;  319,155
354,148;  340,870;  335,035;  339,585
354,228;  314,130;  315,695;  316,905
354,307;  334,000;  329,405;  332,345
354,387;  326,870;  322,095;  322,965
354,466;  318,280;  311,635;  316,045
354,546;  337,530;  335,135;  337,645
354,625;  322,650;  319,815;  320,355
354,705;  324,250;  324,246;  326,865
354,784;  316,660;  316,445;  318,195
354,864;  319,440;  316,635;  317,385
354,943;  336,470;  333,695;  339,105
355,023;  308,130;  310,996;  312,285
355,102;  364,520;  362,866;  363,435
355,181;  314,960;  315,966;  318,045
355,261;  340,880;  338,056;  342,165
355,340;  307,610;  303,845;  307,115
355,420;  344,610;  340,105;  342,305
355,499;  326,590;  322,975;  325,635
355,578;  317,440;  315,276;  316,885
355,658;  335,910;  332,875;  333,745
355,737;  318,500;  317,576;  319,005
355,816;  326,980;  323,276;  324,605
355,896;  320,800;  316,026;  321,355
355,975;  310,220;  307,355;  310,055
356,054;  313,420;  311,935;  312,455
356,133;  293,940;  290,565;  293,305
356,213;  324,970;  324,845;  324,825
356,292;  310,630;  304,016;  309,325
356,371;  317,480;  314,146;  314,035
356,451;  325,570;  324,755;  327,685
356,530;  352,450;  349,496;  350,795
356,609;  315,710;  311,146;  315,535
356,688;  324,040;  316,475;  316,165
356,767;  308,670;  304,695;  309,855
356,846;  329,020;  327,035;  327,235
356,926;  344,030;  340,016;  343,965
357,005;  322,050;  318,345;  318,565
357,084;  307,950;  304,466;  308,385
357,163;  320,050;  317,706;  317,185
357,242;  325,410;  320,146;  319,515
357,321;  315,810;  314,496;  316,575
357,400;  320,580;  321,236;  318,865
357,479;  321,010;  317,725;  320,795
357,559;  324,300;  321,405;  325,705
357,638;  303,290;  300,616;  298,815
357,717;  317,480;  313,746;  311,555
357,796;  332,760;  329,266;  330,875
357,875;  315,680;  314,466;  313,455
357,954;  314,930;  310,155;  313,855
358,033;  317,630;  323,405;  320,935
358,112;  328,400;  329,966;  328,315
358,191;  317,320;  315,276;  318,965
358,270;  295,800;  295,505;  297,695
358,349;  325,010;  321,625;  323,725
358,428;  324,550;  322,445;  326,125
358,507;  324,660;  321,366;  325,105
358,585;  320,930;  320,355;  325,525
358,664;  336,650;  332,266;  334,505
358,743;  325,640;  323,776;  326,515
358,822;  338,110;  334,475;  338,195
358,901;  306,740;  309,176;  309,505
358,980;  313,640;  310,885;  313,735
359,059;  327,980;  328,616;  332,255
359,138;  331,170;  329,415;  328,565
359,216;  324,000;  322,225;  327,485
359,295;  310,110;  309,475;  309,515
359,374;  331,250;  330,026;  333,455
359,453;  321,390;  316,345;  320,885
359,532;  305,020;  304,526;  308,455
359,610;  322,790;  319,556;  323,285
359,689;  332,570;  331,116;  333,025
359,768;  316,790;  313,706;  315,305
359,847;  306,700;  302,065;  305,385
359,925;  306,570;  304,105;  307,215
360,004;  305,210;  299,565;  302,585
360,083;  323,210;  320,165;  321,795
360,161;  309,750;  305,676;  309,885
360,240;  291,860;  288,725;  291,455
360,319;  318,740;  318,276;  317,225
360,397;  327,040;  324,986;  331,265
360,476;  321,020;  318,296;  324,355
360,555;  348,460;  345,565;  346,835
360,633;  306,530;  304,456;  304,945
360,712;  308,400;  309,056;  311,825
360,790;  334,610;  330,065;  331,185
360,869;  310,010;  310,266;  313,085
360,948;  322,980;  322,466;  322,235
361,026;  302,290;  300,065;  301,245
361,105;  312,500;  306,116;  309,875
361,183;  325,570;  324,725;  326,345
361,262;  305,090;  302,375;  307,465
361,340;  308,360;  305,815;  306,875
361,419;  290,920;  289,896;  290,845
361,497;  346,290;  340,926;  346,955
361,576;  320,750;  317,736;  323,245
361,654;  347,840;  342,736;  343,615
361,733;  299,720;  297,366;  297,305
361,811;  329,650;  329,065;  331,875
361,890;  290,300;  292,595;  293,595
361,968;  316,110;  313,706;  316,715
362,046;  336,710;  335,296;  335,795
362,125;  342,110;  337,435;  340,865
362,203;  319,880;  314,635;  316,745
362,282;  333,500;  328,676;  334,675
362,360;  324,370;  318,315;  323,125
362,438;  320,360;  313,565;  317,495
362,517;  361,410;  357,725;  357,035
362,595;  343,260;  340,956;  345,025
362,673;  340,740;  334,576;  338,035
362,752;  327,240;  326,366;  329,445
362,830;  342,350;  343,155;  338,795
362,908;  324,330;  322,885;  326,315
362,986;  335,560;  333,595;  334,645
363,065;  330,260;  326,405;  330,985
363,143;  364,490;  359,875;  363,525
363,221;  320,540;  313,755;  319,675
363,299;  318,770;  315,845;  315,595
363,378;  332,500;  327,546;  328,495
363,456;  308,190;  304,326;  305,295
363,534;  331,140;  323,996;  327,895
363,612;  331,580;  327,546;  330,285
363,690;  340,030;  337,885;  341,915
363,769;  357,380;  349,336;  354,965
363,847;  337,970;  332,326;  333,935
363,925;  308,390;  303,095;  306,775
364,003;  357,450;  350,866;  351,845
364,081;  343,860;  336,345;  339,765
364,159;  338,540;  331,836;  334,695
364,237;  352,690;  341,276;  343,025
364,315;  331,990;  318,866;  320,765
364,393;  364,500;  350,935;  355,465
364,471;  348,910;  328,185;  329,975
364,549;  359,450;  333,026;  334,495
364,627;  358,890;  323,095;  327,065
364,705;  365,620;  311,135;  310,945
364,783;  442,470;  323,496;  332,235
364,861; 1022,300;  331,396;  334,915
364,939; 3537,540;  314,086;  319,855
365,017;  801,470;  306,046;  310,735
365,095;  376,610;  322,116;  324,495
365,173;  380,090;  345,556;  349,605
365,251;  385,530;  341,535;  344,665
365,329;  538,080;  346,466;  345,195
365,407; 1150,480;  318,345;  321,385
365,485;  467,780;  344,826;  348,395
365,563;  362,670;  344,306;  346,815
365,641;  338,060;  331,896;  331,005
365,719;  345,110;  337,095;  336,965
365,796;  344,410;  334,926;  336,075
365,874;  359,750;  347,426;  349,165
365,952;  321,820;  309,516;  312,925
366,030;  351,610;  334,866;  333,525
366,108;  361,280;  326,345;  328,575
366,185;  626,980;  338,396;  343,695
366,263;  871,960;  334,646;  340,035
366,341;  381,090;  334,125;  339,925
366,419;  343,950;  331,535;  331,355
366,496;  349,280;  342,655;  345,225
366,574;  330,530;  325,826;  329,315
366,652;  353,880;  345,296;  349,635
366,730;  369,600;  365,475;  368,065
366,807;  337,410;  330,845;  334,945
366,885;  329,130;  321,135;  327,175
366,963;  334,900;  329,016;  331,635
367,040;  353,030;  345,815;  352,465
367,118;  331,950;  321,875;  325,205
367,196;  350,570;  341,896;  344,715
367,273;  336,290;  335,845;  338,245
367,351;  334,960;  328,155;  331,125
367,428;  359,930;  355,016;  356,915
367,506;  337,740;  329,225;  333,905
367,584;  366,030;  360,216;  363,085
367,661;  349,330;  341,785;  346,585
367,739;  336,240;  328,466;  334,835
367,816;  326,690;  320,345;  324,175
367,894;  343,980;  339,146;  345,755
367,971;  337,490;  329,885;  333,335
368,049;  353,510;  349,586;  353,435
368,126;  321,990;  314,625;  317,265
368,204;  356,360;  351,836;  352,775
368,281;  356,160;  353,225;  355,775
368,359;  352,470;  348,806;  354,965
368,436;  350,320;  342,385;  348,785
368,514;  353,840;  349,646;  351,035
368,591;  349,170;  343,486;  348,405
368,668;  351,240;  347,486;  351,455
368,746;  362,400;  358,556;  362,125
368,823;  343,320;  342,405;  345,515
368,901;  341,790;  339,046;  341,025
368,978;  360,280;  354,975;  361,925
369,055;  349,010;  343,826;  347,145
369,133;  369,880;  367,046;  368,725
369,210;  344,210;  339,206;  342,185
369,287;  372,210;  367,986;  371,205
369,365;  372,460;  368,896;  369,715
369,442;  352,800;  346,826;  351,135
369,519;  311,940;  306,396;  310,475
369,596;  373,910;  369,005;  372,695
369,674;  338,070;  336,526;  336,705
369,751;  367,620;  368,005;  369,405
369,828;  353,790;  350,366;  351,255
369,905;  356,390;  354,796;  358,705
369,983;  331,510;  329,826;  336,485
370,060;  334,700;  335,185;  336,165
370,137;  371,640;  371,595;  373,975
370,214;  342,080;  340,246;  340,845
370,291;  352,200;  347,845;  351,965
370,368;  351,620;  345,426;  349,675
370,446;  338,380;  335,716;  337,375
370,523;  336,070;  331,586;  338,615
370,600;  360,250;  350,706;  356,355
370,677;  348,580;  345,826;  349,525
370,754;  345,430;  341,706;  344,655
370,831;  350,390;  344,885;  347,665
370,908;  373,690;  368,556;  369,945
370,985;  326,420;  326,206;  327,885
371,062;  349,480;  346,635;  347,955
371,139;  361,870;  362,125;  364,815
371,216;  358,970;  357,496;  359,475
371,293;  352,490;  350,576;  350,305
371,370;  334,230;  328,806;  332,395
371,447;  357,560;  354,736;  355,835
371,524;  377,680;  374,685;  378,505
371,601;  374,240;  371,556;  374,285
371,678;  376,470;  374,306;  375,345
371,755;  350,210;  348,526;  348,275
371,832;  372,990;  374,526;  377,175
371,909;  345,370;  342,065;  344,605
371,986;  381,260;  376,505;  379,065
372,063;  347,400;  346,195;  348,745
372,140;  358,120;  354,056;  357,495
372,216;  361,050;  360,225;  360,935
372,293;  347,250;  341,945;  344,805
372,370;  375,980;  370,236;  372,635
372,447;  358,760;  361,646;  361,385
372,524;  352,580;  349,725;  352,115
372,601;  355,030;  353,236;  356,005
372,677;  340,170;  339,586;  339,035
372,754;  348,090;  347,516;  350,955
372,831;  357,140;  354,716;  356,955
372,908;  370,110;  368,496;  364,795
372,984;  356,470;  349,246;  356,035
373,061;  341,220;  342,046;  342,845
373,138;  354,390;  349,986;  354,465
373,215;  348,730;  345,155;  346,585
373,291;  351,230;  347,556;  353,415
373,368;  358,550;  353,516;  357,375
373,445;  351,330;  348,285;  348,395
373,521;  353,190;  349,216;  353,935
373,598;  345,140;  341,766;  343,845
373,675;  337,590;  332,646;  334,115
373,751;  352,490;  345,375;  354,195
373,828;  346,270;  341,076;  346,375
373,904;  394,550;  387,225;  391,935
373,981;  335,070;  332,516;  333,585
374,057;  355,520;  353,306;  355,945
374,134;  336,070;  331,706;  334,435
374,211;  352,590;  348,826;  351,835
374,287;  341,590;  338,565;  339,035
374,364;  366,970;  362,426;  365,335
374,440;  321,330;  319,035;  321,205
374,517;  367,350;  361,625;  366,995
374,593;  328,520;  326,896;  326,865
374,670;  346,260;  340,095;  342,905
374,746;  351,220;  346,915;  349,135
374,823;  370,740;  369,255;  368,775
374,899;  366,940;  366,836;  366,475
374,975;  343,890;  336,035;  341,495
375,052;  324,420;  319,776;  326,175
375,128;  326,980;  325,956;  331,675
375,205;  359,240;  353,665;  355,605
375,281;  336,750;  337,296;  336,395
375,357;  366,140;  361,026;  364,245
375,434;  341,100;  331,986;  338,045
375,510;  350,910;  347,755;  353,175
375,586;  353,080;  347,486;  349,845
375,663;  326,940;  321,926;  323,515
375,739;  359,570;  355,716;  358,675
375,815;  347,780;  346,366;  346,765
375,892;  349,240;  344,516;  348,555
375,968;  338,750;  331,605;  336,855
376,044;  340,040;  335,866;  339,405
376,120;  339,520;  332,535;  339,615
376,197;  355,560;  348,466;  352,185
376,273;  343,450;  340,516;  341,095
376,349;  380,650;  378,366;  379,125
376,425;  367,510;  362,935;  364,425
376,501;  349,740;  344,225;  347,555
376,578;  362,020;  362,885;  363,255
376,654;  382,550;  383,866;  382,945
376,730;  364,320;  360,266;  364,005
376,806;  379,760;  375,185;  376,845
376,882;  376,470;  377,176;  378,355
376,958;  376,470;  376,706;  373,325
377,034;  322,920;  319,695;  317,895
377,111;  370,160;  368,826;  369,285
377,187;  393,380;  390,845;  391,825
377,263;  383,800;  383,885;  384,725
377,339;  347,420;  341,445;  346,375
377,415;  366,580;  366,366;  365,685
377,491;  346,700;  342,885;  347,505
377,567;  362,860;  359,755;  360,685
377,643;  382,680;  380,076;  378,785
377,719;  370,780;  363,706;  367,845
377,795;  351,960;  345,725;  349,165
377,871;  372,410;  367,866;  370,355
377,947;  353,810;  348,236;  351,215
378,023;  348,470;  345,855;  349,075
378,099;  350,510;  349,035;  350,465
378,174;  370,750;  374,176;  374,825
378,250;  366,810;  363,105;  366,955
378,326;  370,200;  366,255;  370,045
378,402;  363,000;  357,685;  360,315
378,478;  365,080;  361,605;  365,295
378,554;  375,260;  370,396;  375,075
378,630;  369,130;  365,225;  365,285
378,706;  356,360;  358,076;  357,335
378,781;  398,530;  390,875;  394,875
378,857;  369,210;  363,185;  366,505
378,933;  367,260;  360,315;  365,855
379,009;  352,260;  351,426;  351,035
379,085;  394,780;  393,826;  391,725
379,160;  375,880;  377,246;  378,485
379,236;  376,920;  374,195;  376,655
379,312;  365,720;  359,915;  361,725
379,387;  354,200;  354,486;  355,105
379,463;  367,440;  359,836;  363,685
379,539;  375,510;  370,475;  373,395
379,615;  362,710;  359,056;  358,495
379,690;  399,510;  395,035;  398,755
379,766;  379,500;  373,276;  379,335
379,842;  392,880;  391,105;  391,375
379,917;  385,580;  380,935;  388,225
379,993;  374,410;  368,366;  373,385
380,068;  362,390;  359,236;  361,755
380,144;  385,130;  381,086;  383,405
380,220;  386,440;  382,086;  386,535
380,295;  353,750;  353,005;  355,035
380,371;  363,820;  359,935;  361,545
380,446;  379,910;  377,165;  381,125
380,522;  350,840;  348,766;  349,425
380,597;  359,120;  360,486;  359,965
380,673;  396,950;  390,456;  394,425
380,748;  358,750;  358,046;  358,445
380,824;  370,320;  367,676;  369,935
380,899;  390,600;  386,216;  388,425
380,975;  365,840;  365,475;  366,905
381,050;  357,600;  352,806;  352,825
381,126;  374,040;  370,526;  373,695
381,201;  401,630;  398,806;  402,495
381,277;  375,030;  373,435;  374,795
381,352;  389,770;  388,105;  390,855
381,427;  378,470;  372,586;  376,025
381,503;  379,650;  378,896;  379,385
381,578;  366,690;  360,605;  365,515
381,653;  372,970;  368,776;  372,375
381,729;  362,710;  361,535;  360,945
381,804;  369,050;  367,475;  368,805
381,879;  387,310;  383,306;  386,055
381,955;  358,340;  354,396;  356,545
382,030;  358,230;  356,556;  357,225
382,105;  374,050;  375,586;  372,555
382,181;  370,290;  367,466;  371,255
382,256;  377,580;  378,116;  374,765
382,331;  376,680;  367,216;  371,745
382,406;  353,150;  353,266;  357,745
382,482;  364,240;  361,315;  357,655
382,557;  365,450;  363,526;  366,745
382,632;  372,230;  370,595;  371,585
382,707;  364,700;  361,135;  365,615
382,782;  368,780;  361,516;  366,275
382,857;  363,930;  358,996;  361,035
382,933;  354,590;  351,776;  352,995
383,008;  345,710;  344,065;  345,165
383,083;  379,460;  376,866;  379,215
383,158;  383,220;  378,866;  381,615
383,233;  363,580;  362,385;  363,105
383,308;  364,800;  359,875;  362,675
383,383;  396,280;  389,445;  391,785
383,458;  362,900;  361,135;  360,475
383,533;  344,340;  342,456;  344,625
383,608;  392,930;  387,885;  390,385
383,683;  386,320;  385,046;  389,585
383,758;  383,260;  380,285;  380,925
383,833;  371,150;  370,296;  371,015
383,908;  342,570;  343,206;  342,165
383,983;  352,270;  346,296;  350,755
384,058;  357,080;  355,246;  357,655
384,133;  370,360;  368,185;  368,575
384,208;  382,450;  376,796;  379,565
384,283;  351,380;  348,736;  351,825
384,358;  387,660;  381,845;  387,485
384,433;  358,470;  357,496;  357,355
384,508;  373,840;  368,966;  373,895
384,583;  377,450;  373,725;  375,265
384,658;  372,570;  367,915;  371,275
384,732;  339,310;  339,456;  339,705
384,807;  366,410;  366,935;  369,005
384,882;  375,710;  371,246;  373,145
384,957;  373,880;  368,095;  371,985
385,032;  378,260;  375,426;  376,555
385,106;  371,060;  370,216;  371,515
385,181;  355,440;  351,385;  357,155
385,256;  367,110;  363,565;  366,745
385,331;  376,160;  371,935;  373,255
385,405;  383,720;  380,975;  381,445
385,480;  367,460;  365,695;  366,715
385,555;  403,650;  399,306;  400,405
385,630;  391,790;  390,956;  395,935
385,704;  373,990;  374,056;  377,105
385,779;  363,770;  364,405;  364,855
385,854;  370,860;  368,746;  369,975
385,928;  363,780;  363,016;  365,315
386,003;  405,580;  402,586;  405,115
386,078;  375,580;  372,466;  374,995
386,152;  402,740;  401,456;  401,815
386,227;  359,910;  357,646;  361,225
386,301;  378,380;  378,725;  380,385
386,376;  355,890;  348,695;  355,015
386,450;  381,780;  378,616;  381,145
386,525;  380,280;  373,556;  377,655
386,600;  390,010;  385,746;  385,925
386,674;  367,870;  364,076;  367,315
386,749;  383,170;  375,095;  381,315
386,823;  382,700;  377,435;  382,095
386,898;  384,630;  379,766;  380,535
386,972;  390,740;  380,966;  385,985
387,047;  375,920;  369,776;  374,355
387,121;  383,750;  379,695;  380,335
387,195;  362,530;  357,875;  359,895
387,270;  389,850;  385,625;  385,415
387,344;  407,770;  404,405;  407,055
387,419;  393,940;  385,665;  393,195
387,493;  381,590;  377,776;  379,825
387,567;  358,470;  355,005;  358,475
387,642;  407,670;  403,586;  405,945
387,716;  375,120;  369,565;  372,245
387,790;  375,020;  367,706;  371,225
387,865;  375,430;  372,806;  373,715
387,939;  405,120;  403,005;  404,415
388,013;  385,690;  384,806;  386,145
388,088;  374,530;  368,655;  370,085
388,162;  372,680;  370,135;  371,835
388,236;  375,060;  372,456;  375,275
388,310;  364,650;  361,966;  364,475
388,385;  401,690;  397,185;  400,845
388,459;  378,710;  379,996;  380,235
388,533;  364,200;  363,676;  362,565
388,607;  367,330;  366,776;  365,955
388,682;  378,600;  374,806;  375,745
388,756;  362,440;  355,035;  360,825
388,830;  392,690;  390,255;  394,075
388,904;  383,270;  378,276;  385,365
388,978;  374,140;  369,535;  370,165
389,052;  376,750;  375,396;  377,225
389,126;  375,060;  370,435;  376,195
389,200;  377,160;  372,665;  377,205
389,275;  368,790;  369,266;  367,695
389,349;  376,430;  374,695;  373,065
389,423;  370,910;  369,565;  369,375
389,497;  381,900;  380,966;  383,775
389,571;  371,140;  368,665;  370,175
389,645;  379,170;  376,806;  379,805
389,719;  374,520;  369,396;  372,955
389,793;  347,760;  346,576;  348,725
389,867;  402,090;  398,035;  402,955
389,941;  382,380;  375,375;  377,215
390,015;  367,810;  361,135;  364,515
390,089;  362,170;  360,426;  362,085
390,163;  376,550;  372,456;  375,935
390,237;  379,140;  375,435;  379,295
390,310;  383,890;  379,276;  382,155
390,384;  384,840;  376,546;  383,625
390,458;  405,660;  400,826;  403,825
390,532;  386,750;  383,496;  386,725
390,606;  370,520;  365,945;  369,265
390,680;  368,860;  366,466;  368,115
390,754;  365,990;  366,385;  368,915
390,827;  393,960;  388,276;  392,645
390,901;  394,940;  391,855;  396,215
390,975;  368,710;  368,905;  370,295
391,049;  369,130;  366,366;  364,315
391,123;  366,110;  362,685;  363,545
391,196;  368,210;  367,635;  367,855
391,270;  378,880;  378,426;  377,835
391,344;  361,980;  360,056;  359,585
391,418;  374,900;  372,975;  372,155
391,491;  363,380;  362,655;  363,995
391,565;  367,700;  362,065;  366,105
391,639;  396,350;  394,345;  397,875
391,712;  388,920;  385,815;  384,375
391,786;  386,090;  382,646;  386,785
391,860;  373,230;  369,385;  370,925
391,933;  375,040;  369,935;  371,115
392,007;  376,370;  371,355;  380,875
392,081;  402,620;  396,456;  399,955
392,154;  382,960;  377,845;  383,895
392,228;  395,940;  391,366;  394,685
392,301;  382,260;  376,266;  381,275
392,375;  393,260;  386,076;  389,995
392,448;  382,380;  379,516;  384,445
392,522;  378,820;  376,236;  379,965
392,595;  375,880;  370,105;  374,245
392,669;  378,890;  376,116;  379,675
392,742;  394,330;  390,975;  396,915
392,816;  397,520;  397,296;  400,205
392,889;  395,870;  392,746;  396,605
392,963;  409,590;  409,095;  409,745
393,036;  388,370;  385,345;  386,785
393,110;  395,100;  391,155;  393,885
393,183;  405,460;  400,836;  405,685
393,257;  417,750;  415,456;  417,745
393,330;  369,280;  365,845;  369,745
393,403;  390,350;  390,486;  395,585
393,477;  357,260;  355,845;  358,875
393,550;  393,080;  390,306;  395,545
393,623;  389,980;  388,396;  388,295
393,697;  405,850;  406,056;  406,835
393,770;  381,180;  376,556;  379,065
393,843;  407,390;  402,996;  406,915
393,917;  398,460;  394,216;  398,485
393,990;  413,380;  409,996;  410,125
394,063;  393,940;  386,855;  392,225
394,136;  393,900;  388,635;  391,675
394,210;  391,800;  393,336;  395,655
394,283;  405,110;  402,785;  407,175
394,356;  400,350;  399,165;  399,175
394,429;  399,840;  396,935;  398,825
394,502;  385,720;  382,016;  383,895
394,576;  421,160;  414,125;  414,715
394,649;  382,170;  378,776;  377,865
394,722;  404,370;  400,896;  403,785
394,795;  410,750;  408,306;  413,185
394,868;  386,580;  384,135;  385,985
394,941;  374,420;  376,435;  375,265
395,014;  422,830;  417,056;  420,205
395,088;  401,590;  398,956;  399,175
395,161;  399,940;  395,466;  398,685
395,234;  408,710;  409,236;  410,735
395,307;  403,190;  402,236;  405,525
395,380;  389,500;  384,736;  385,325
395,453;  435,690;  436,845;  437,285
395,526;  411,850;  408,385;  412,495
395,599;  429,820;  426,926;  430,645
395,672;  395,130;  394,586;  394,895
395,745;  419,540;  417,125;  421,075
395,818;  377,740;  376,306;  378,615
395,891;  387,590;  385,635;  387,695
395,964;  417,270;  415,896;  414,885
396,036;  388,700;  387,486;  384,175
396,109;  392,850;  392,076;  395,785
396,182;  399,790;  396,766;  399,545
396,255;  401,110;  399,225;  398,845
396,328;  411,970;  410,065;  411,075
396,401;  371,030;  370,746;  371,295
396,474;  382,030;  381,086;  381,505
396,547;  403,190;  397,046;  400,645
396,619;  394,600;  390,755;  390,525
396,692;  411,090;  404,866;  411,355
396,765;  375,720;  370,616;  372,985
396,838;  390,200;  388,225;  388,295
396,911;  374,540;  371,266;  373,155
396,983;  394,920;  392,496;  392,385
397,056;  374,700;  372,355;  374,095
397,129;  387,300;  387,796;  389,615
397,201;  389,820;  391,556;  389,605
397,274;  390,340;  385,366;  389,335
397,347;  367,630;  363,345;  363,665
397,420;  389,580;  384,605;  387,195
397,492;  391,600;  388,296;  388,685
397,565;  377,710;  375,915;  379,595
397,637;  373,500;  369,366;  372,085
397,710;  354,200;  351,586;  350,295
397,783;  415,740;  412,855;  414,805
397,855;  345,610;  345,345;  347,055
397,928;  372,320;  368,336;  371,095
398,000;  399,040;  395,866;  396,635
398,073;  388,280;  386,546;  384,745
398,146;  376,880;  376,706;  377,295
398,218;  392,710;  390,255;  393,135
398,291;  385,720;  385,806;  387,915
398,363;  380,930;  381,755;  384,505
398,436;  373,160;  369,855;  374,675
398,508;  383,910;  383,266;  385,345
398,581;  381,820;  378,206;  380,565
398,653;  375,040;  374,255;  373,825
398,726;  380,940;  378,535;  383,385
398,798;  388,760;  383,306;  387,885
398,870;  393,700;  391,116;  396,905
398,943;  369,530;  366,236;  369,775
399,015;  367,120;  365,676;  368,815
399,088;  389,700;  389,655;  388,435
399,160;  369,180;  368,076;  368,815
399,232;  352,360;  350,405;  352,095
399,305;  373,660;  368,435;  372,935
399,377;  378,470;  377,905;  377,535
399,449;  385,050;  386,246;  388,735
399,522;  424,620;  421,875;  424,965
399,594;  368,040;  364,576;  365,315
399,666;  385,170;  382,625;  385,235
399,738;  376,760;  373,336;  375,225
399,811;  378,410;  376,736;  377,025
399,883;  392,100;  386,105;  388,295
399,955;  394,210;  389,855;  389,195
400,027;  350,490;  345,945;  349,545
400,100;  404,910;  407,366;  409,275
400,172;  349,630;  348,296;  349,645
400,244;  379,960;  378,225;  381,195
400,316;  395,330;  393,016;  393,505
400,388;  393,060;  389,385;  393,005
400,460;  365,840;  359,306;  364,605
400,532;  351,510;  350,826;  351,835
400,605;  383,160;  377,736;  384,975
400,677;  403,580;  402,285;  404,675
400,749;  400,750;  395,685;  398,125
400,821;  388,580;  385,956;  388,105
400,893;  378,160;  379,445;  382,305
400,965;  392,710;  386,755;  392,785
401,037;  387,970;  387,565;  392,525
401,109;  374,760;  370,725;  373,835
401,181;  383,890;  380,716;  385,485

