pru
Integration time [ms]:   0,150
Averaging Nr. [scans]: 1
Smoothing Nr. [pixels]: 0
Data measured with spectrometer [name]: 7416147SP
Wave   ;Sample   ;Dark     ;Reference
[nm]   ;[counts] ;[counts] ;[counts] 

230,218;  286,275;  290,315;  293,845
230,311;  296,275;  319,885;  318,565
230,404;  307,275;  309,855;  312,875
230,497;  329,275;  317,385;  315,715
230,591;  327,275;  333,426;  335,355
230,684;  331,275;  326,486;  329,355
230,777;  324,275;  311,736;  314,765
230,870;  315,275;  313,326;  316,955
230,964;  272,275;  310,885;  314,745
231,057;  319,275;  342,496;  343,475
231,150;  353,275;  331,695;  332,715
231,243;  308,275;  330,635;  332,775
231,336;  335,275;  331,375;  331,335
231,430;  322,275;  316,496;  317,715
231,523;  335,275;  324,516;  326,785
231,616;  322,275;  305,445;  309,685
231,709;  338,275;  328,065;  330,025
231,802;  325,275;  300,945;  301,885
231,895;  287,275;  299,836;  300,315
231,988;  347,275;  315,655;  318,535
232,082;  309,275;  298,155;  302,425
232,175;  305,275;  302,155;  306,175
232,268;  326,275;  301,266;  305,345
232,361;  321,275;  304,806;  307,515
232,454;  339,275;  322,396;  323,025
232,547;  324,275;  318,716;  322,655
232,640;  288,275;  296,766;  294,035
232,733;  367,275;  314,116;  323,045
232,826;  302,275;  288,915;  295,035
232,919;  351,275;  313,826;  312,665
233,012;  300,275;  293,646;  292,775
233,105;  312,275;  294,766;  298,815
233,199;  309,275;  299,875;  304,045
233,292;  303,275;  293,475;  296,235
233,385;  279,275;  263,426;  262,225
233,478;  328,275;  293,885;  295,685
233,571;  308,275;  324,586;  327,675
233,664;  322,275;  305,996;  308,435
233,757;  311,275;  280,796;  281,395
233,850;  293,275;  282,255;  285,825
233,943;  298,275;  290,896;  292,195
234,035;  270,275;  300,576;  302,355
234,128;  271,275;  281,836;  283,945
234,221;  309,275;  297,665;  298,245
234,314;  302,275;  304,915;  311,975
234,407;  327,275;  302,935;  309,075
234,500;  305,275;  277,625;  281,875
234,593;  269,275;  287,095;  285,735
234,686;  286,275;  293,746;  293,765
234,779;  299,275;  291,266;  293,165
234,872;  301,275;  281,806;  281,565
234,965;  288,275;  292,806;  290,795
235,058;  280,275;  274,155;  276,215
235,150;  281,275;  285,776;  290,805
235,243;  293,275;  282,736;  284,425
235,336;  300,275;  300,695;  304,545
235,429;  280,275;  273,646;  272,515
235,522;  338,275;  330,996;  335,445
235,615;  280,275;  262,276;  265,145
235,707;  278,275;  282,415;  282,335
235,800;  300,275;  289,815;  290,515
235,893;  282,275;  289,956;  292,955
235,986;  295,275;  298,266;  299,325
236,079;  310,275;  286,586;  291,125
236,171;  289,275;  270,725;  271,865
236,264;  340,275;  312,635;  313,275
236,357;  295,275;  290,986;  293,865
236,450;  323,275;  315,225;  317,215
236,542;  279,275;  267,065;  272,575
236,635;  368,275;  313,546;  316,385
236,728;  330,275;  285,516;  288,115
236,821;  277,275;  280,165;  283,715
236,913;  283,275;  277,896;  276,315
237,006;  289,275;  271,605;  275,435
237,099;  296,275;  283,896;  285,575
237,191;  343,275;  298,796;  300,225
237,284;  282,275;  267,896;  272,995
237,377;  299,275;  294,725;  297,495
237,470;  266,275;  285,415;  287,875
237,562;  296,275;  276,866;  275,785
237,655;  351,275;  320,945;  324,565
237,747;  309,275;  292,695;  295,845
237,840;  305,275;  313,086;  314,435
237,933;  293,275;  300,445;  301,555
238,025;  310,275;  301,415;  301,595
238,118;  289,275;  282,456;  287,755
238,211;  288,275;  268,155;  272,375
238,303;  300,275;  272,296;  273,415
238,396;  266,275;  268,065;  271,945
238,488;  297,275;  292,625;  291,075
238,581;  300,275;  287,855;  289,445
238,673;  312,275;  285,766;  286,865
238,766;  298,275;  282,635;  283,185
238,859;  245,275;  273,586;  276,105
238,951;  296,275;  281,095;  282,835
239,044;  280,275;  276,496;  279,525
239,136;  274,275;  269,035;  271,705
239,229;  275,275;  280,665;  283,435
239,321;  268,275;  271,255;  276,105
239,414;  308,275;  289,875;  292,345
239,506;  314,275;  284,625;  290,655
239,599;  329,275;  316,315;  315,935
239,691;  307,275;  287,945;  287,755
239,784;  312,275;  301,926;  304,175
239,876;  306,275;  295,005;  294,715
239,969;  317,275;  284,426;  288,635
240,061;  280,275;  269,505;  272,655
240,153;  271,275;  276,776;  278,405
240,246;  290,275;  287,635;  287,925
240,338;  305,275;  315,285;  314,405
240,431;  276,275;  268,896;  270,455
240,523;  266,275;  269,315;  270,665
240,615;  327,275;  299,086;  301,495
240,708;  321,275;  309,945;  312,145
240,800;  304,275;  286,956;  289,175
240,893;  318,275;  272,216;  274,965
240,985;  315,275;  286,116;  289,995
241,077;  273,275;  269,866;  271,905
241,170;  308,275;  300,355;  300,805
241,262;  284,275;  293,695;  290,825
241,354;  267,275;  252,305;  253,985
241,447;  293,275;  281,326;  283,905
241,539;  286,275;  266,746;  270,745
241,631;  350,275;  314,366;  317,275
241,724;  272,275;  259,135;  260,655
241,816;  285,275;  279,385;  281,545
241,908;  288,275;  275,056;  280,445
242,000;  261,275;  277,625;  279,505
242,093;  339,275;  277,725;  280,745
242,185;  278,275;  277,736;  277,535
242,277;  300,275;  274,695;  277,115
242,369;  302,275;  282,146;  286,335
242,462;  288,275;  274,405;  274,215
242,554;  291,275;  277,146;  281,105
242,646;  281,275;  283,146;  286,575
242,738;  326,275;  303,255;  307,195
242,830;  265,275;  259,026;  260,415
242,923;  294,275;  297,035;  299,015
243,015;  277,275;  268,655;  266,675
243,107;  290,275;  267,676;  271,255
243,199;  269,275;  276,345;  278,365
243,291;  296,275;  272,125;  276,215
243,383;  277,275;  254,826;  256,465
243,476;  278,275;  269,435;  268,005
243,568;  285,275;  280,915;  284,885
243,660;  290,275;  273,385;  279,575
243,752;  278,275;  279,796;  287,275
243,844;  324,275;  300,766;  302,705
243,936;  285,275;  291,956;  293,555
244,028;  306,275;  304,796;  307,475
244,120;  253,275;  254,346;  255,525
244,212;  309,275;  293,826;  293,755
244,305;  250,275;  268,496;  267,935
244,397;  310,275;  289,165;  291,675
244,489;  305,275;  304,276;  307,925
244,581;  308,275;  299,255;  300,795
244,673;  256,275;  281,806;  283,225
244,765;  293,275;  286,035;  290,565
244,857;  277,275;  284,986;  287,335
244,949;  268,275;  283,956;  284,945
245,041;  256,275;  250,865;  255,005
245,133;  300,275;  293,695;  296,625
245,225;  292,275;  277,915;  280,695
245,317;  310,275;  289,456;  289,025
245,409;  280,275;  263,755;  269,375
245,501;  300,275;  288,496;  293,045
245,593;  254,275;  286,255;  290,055
245,685;  300,275;  285,405;  288,735
245,776;  303,275;  285,945;  287,235
245,868;  262,275;  271,276;  272,565
245,960;  272,275;  265,875;  263,405
246,052;  303,275;  310,766;  310,445
246,144;  306,275;  294,165;  294,205
246,236;  279,275;  283,576;  283,565
246,328;  263,275;  291,345;  293,965
246,420;  296,275;  279,746;  280,855
246,512;  299,275;  308,236;  310,455
246,604;  317,275;  282,526;  286,825
246,695;  285,275;  273,345;  272,135
246,787;  299,275;  293,526;  301,145
246,879;  302,275;  292,716;  297,145
246,971;  307,275;  299,276;  300,965
247,063;  298,275;  273,255;  278,605
247,155;  314,275;  294,516;  297,195
247,246;  307,275;  283,266;  283,715
247,338;  301,275;  288,116;  294,265
247,430;  287,275;  299,945;  303,475
247,522;  311,275;  297,546;  300,555
247,613;  275,275;  296,586;  299,675
247,705;  311,275;  286,896;  288,445
247,797;  328,275;  305,776;  307,475
247,889;  319,275;  294,706;  295,475
247,980;  323,275;  285,676;  291,995
248,072;  319,275;  282,845;  285,895
248,164;  339,275;  293,216;  298,385
248,256;  292,275;  271,366;  274,105
248,347;  339,275;  309,785;  311,065
248,439;  297,275;  283,165;  282,675
248,531;  283,275;  303,885;  304,835
248,622;  297,275;  307,206;  308,325
248,714;  326,275;  276,945;  278,365
248,806;  275,275;  293,655;  298,015
248,897;  300,275;  291,535;  292,985
248,989;  245,275;  263,956;  263,855
249,081;  286,275;  283,355;  284,905
249,172;  299,275;  289,926;  295,135
249,264;  271,275;  272,076;  273,435
249,356;  296,275;  269,326;  273,745
249,447;  318,275;  282,176;  284,525
249,539;  287,275;  283,086;  284,645
249,630;  293,275;  289,875;  288,495
249,722;  299,275;  313,276;  315,395
249,813;  308,275;  280,496;  284,125
249,905;  303,275;  289,426;  293,665
249,997;  279,275;  281,445;  280,615
250,088;  304,275;  282,255;  288,985
250,180;  283,275;  283,695;  284,575
250,271;  300,275;  281,195;  280,335
250,363;  327,275;  319,105;  320,755
250,454;  273,275;  273,035;  275,615
250,546;  280,275;  285,926;  289,415
250,637;  281,275;  264,445;  261,845
250,729;  272,275;  266,505;  269,555
250,820;  307,275;  289,915;  292,965
250,912;  238,275;  262,355;  267,085
251,003;  292,275;  278,396;  280,475
251,095;  310,275;  282,086;  284,555
251,186;  300,275;  271,415;  274,775
251,277;  293,275;  271,986;  275,265
251,369;  249,275;  275,975;  275,105
251,460;  286,275;  271,456;  273,815
251,552;  267,275;  278,475;  279,655
251,643;  294,275;  268,796;  267,375
251,735;  306,275;  265,246;  267,375
251,826;  268,275;  258,016;  263,245
251,917;  329,275;  278,035;  279,115
252,009;  311,275;  273,396;  275,605
252,100;  323,275;  281,426;  283,345
252,191;  363,275;  289,996;  292,015
252,283;  328,275;  265,095;  267,705
252,374;  348,275;  278,296;  278,375
252,465;  421,275;  295,405;  298,605
252,557;  371,275;  283,576;  286,365
252,648;  345,275;  265,146;  268,635
252,739;  418,275;  280,516;  282,125
252,831;  372,275;  270,836;  280,355
252,922;  412,275;  282,296;  280,045
253,013;  503,275;  273,956;  284,285
253,104;  546,275;  270,076;  270,335
253,196;  649,275;  271,366;  271,175
253,287;  798,275;  281,836;  277,135
253,378; 1176,275;  276,276;  277,975
253,469; 3721,275;  272,385;  276,445
253,561;20689,275;  273,496;  278,855
253,652;40660,273;  282,266;  280,015
253,743; 6527,275;  276,216;  280,985
253,834;  580,275;  259,146;  265,875
253,926;  484,275;  262,605;  267,485
254,017;  510,275;  284,236;  290,235
254,108;  448,275;  291,836;  290,565
254,199;  437,275;  285,326;  291,185
254,290;  440,275;  312,725;  313,865
254,381;  376,275;  287,076;  291,155
254,472;  385,275;  291,935;  300,495
254,564;  360,275;  312,766;  307,565
254,655;  394,275;  304,755;  308,105
254,746;  364,275;  264,896;  264,025
254,837;  392,275;  293,105;  298,435
254,928;  338,275;  266,836;  271,975
255,019;  406,275;  283,505;  286,805
255,110;  377,275;  300,165;  301,665
255,201;  334,275;  281,155;  287,655
255,292;  406,275;  312,706;  316,275
255,383;  361,275;  275,785;  275,725
255,474;  311,275;  273,306;  273,095
255,566;  324,275;  283,926;  286,645
255,657;  359,275;  298,556;  302,445
255,748;  321,275;  271,415;  278,125
255,839;  294,275;  280,695;  282,485
255,930;  327,275;  287,866;  289,735
256,021;  286,275;  298,845;  298,115
256,112;  327,275;  278,456;  278,735
256,203;  342,275;  311,866;  313,365
256,294;  301,275;  293,496;  299,575
256,384;  299,275;  270,565;  275,715
256,475;  331,275;  290,996;  294,595
256,566;  259,275;  281,246;  287,825
256,657;  297,275;  278,945;  278,915
256,748;  282,275;  281,285;  284,675
256,839;  287,275;  274,426;  273,555
256,930;  291,275;  279,165;  283,055
257,021;  301,275;  304,155;  306,465
257,112;  298,275;  304,926;  309,235
257,203;  259,275;  258,445;  259,825
257,294;  255,275;  254,465;  262,175
257,385;  283,275;  288,526;  294,205
257,475;  310,275;  279,135;  278,545
257,566;  305,275;  287,586;  292,255
257,657;  281,275;  269,595;  270,025
257,748;  285,275;  275,935;  276,095
257,839;  281,275;  287,915;  286,025
257,930;  303,275;  285,736;  290,395
258,020;  260,275;  269,716;  271,535
258,111;  266,275;  262,225;  263,255
258,202;  326,275;  288,326;  289,935
258,293;  316,275;  284,655;  285,305
258,384;  311,275;  305,595;  307,665
258,474;  278,275;  288,676;  291,995
258,565;  301,275;  271,635;  273,435
258,656;  313,275;  292,966;  295,145
258,747;  274,275;  271,475;  275,425
258,837;  255,275;  274,246;  273,695
258,928;  285,275;  275,785;  278,605
259,019;  264,275;  268,415;  270,595
259,109;  254,275;  269,685;  269,425
259,200;  283,275;  286,105;  289,815
259,291;  301,275;  269,975;  271,655
259,381;  302,275;  293,026;  295,635
259,472;  310,275;  295,796;  296,545
259,563;  325,275;  303,065;  305,845
259,653;  321,275;  278,296;  281,385
259,744;  288,275;  268,826;  267,735
259,835;  303,275;  300,975;  302,815
259,925;  273,275;  271,505;  277,075
260,016;  294,275;  286,746;  287,585
260,107;  248,275;  258,035;  264,715
260,197;  306,275;  283,975;  286,325
260,288;  279,275;  274,565;  279,155
260,378;  282,275;  267,195;  271,275
260,469;  307,275;  285,915;  288,765
260,560;  266,275;  266,146;  269,495
260,650;  273,275;  271,736;  275,665
260,741;  263,275;  276,366;  279,035
260,831;  269,275;  272,855;  275,905
260,922;  263,275;  266,206;  269,545
261,012;  273,275;  277,665;  278,255
261,103;  318,275;  301,785;  302,875
261,193;  293,275;  302,086;  303,915
261,284;  278,275;  271,806;  273,005
261,374;  315,275;  296,385;  303,855
261,465;  290,275;  287,755;  289,435
261,555;  267,275;  282,255;  280,715
261,646;  292,275;  292,475;  294,375
261,736;  301,275;  287,435;  290,535
261,827;  273,275;  283,716;  284,935
261,917;  303,275;  311,736;  311,595
262,007;  317,275;  283,986;  288,075
262,098;  300,275;  289,445;  287,725
262,188;  348,275;  326,655;  333,475
262,279;  314,275;  300,185;  299,795
262,369;  261,275;  286,285;  289,225
262,459;  286,275;  288,246;  290,365
262,550;  322,275;  303,266;  301,565
262,640;  276,275;  273,005;  276,555
262,731;  299,275;  300,935;  299,335
262,821;  304,275;  310,535;  312,255
262,911;  293,275;  297,875;  298,285
263,002;  269,275;  289,625;  290,825
263,092;  340,275;  303,956;  306,295
263,182;  305,275;  284,806;  285,755
263,273;  272,275;  285,426;  289,395
263,363;  298,275;  300,746;  299,385
263,453;  268,275;  267,375;  268,605
263,543;  318,275;  289,815;  289,615
263,634;  276,275;  266,516;  266,365
263,724;  284,275;  292,586;  293,065
263,814;  325,275;  308,706;  308,885
263,904;  272,275;  281,966;  285,905
263,995;  327,275;  322,276;  322,325
264,085;  302,275;  295,855;  294,575
264,175;  284,275;  296,706;  296,385
264,265;  324,275;  321,105;  321,865
264,356;  242,275;  270,466;  274,385
264,446;  317,275;  308,996;  307,575
264,536;  303,275;  294,026;  297,515
264,626;  318,275;  318,486;  320,175
264,716;  294,275;  298,435;  303,275
264,806;  329,275;  308,776;  310,415
264,897;  286,275;  258,135;  258,615
264,987;  305,275;  303,535;  304,475
265,077;  295,275;  287,046;  292,545
265,167;  387,275;  310,216;  311,575
265,257;  330,275;  290,445;  290,535
265,347;  321,275;  294,336;  295,795
265,437;  314,275;  296,176;  300,635
265,527;  325,275;  293,155;  294,765
265,617;  253,275;  279,875;  285,145
265,708;  303,275;  314,216;  314,825
265,798;  300,275;  305,415;  307,055
265,888;  311,275;  300,716;  305,545
265,978;  292,275;  294,496;  295,825
266,068;  304,275;  310,155;  315,855
266,158;  267,275;  294,005;  297,205
266,248;  280,275;  274,016;  276,865
266,338;  323,275;  313,035;  314,815
266,428;  306,275;  300,635;  302,655
266,518;  284,275;  311,405;  315,615
266,608;  319,275;  299,725;  294,215
266,698;  244,275;  273,586;  276,245
266,788;  277,275;  274,456;  277,745
266,878;  347,275;  325,776;  330,865
266,968;  268,275;  306,725;  309,425
267,058;  277,275;  297,375;  302,895
267,147;  306,275;  301,845;  302,905
267,237;  312,275;  291,815;  295,765
267,327;  285,275;  286,755;  287,895
267,417;  286,275;  301,225;  303,385
267,507;  296,275;  292,176;  294,215
267,597;  307,275;  282,026;  283,655
267,687;  318,275;  285,165;  287,755
267,777;  302,275;  283,986;  284,615
267,867;  313,275;  312,125;  312,585
267,956;  292,275;  302,466;  304,005
268,046;  327,275;  305,466;  310,865
268,136;  291,275;  296,875;  298,905
268,226;  287,275;  274,885;  274,965
268,316;  276,275;  280,766;  280,845
268,406;  306,275;  289,516;  287,595
268,495;  275,275;  284,415;  287,935
268,585;  335,275;  306,716;  309,605
268,675;  273,275;  284,336;  285,535
268,765;  298,275;  296,355;  300,115
268,854;  295,275;  285,935;  286,715
268,944;  311,275;  291,646;  293,805
269,034;  263,275;  283,986;  289,715
269,124;  262,275;  287,216;  290,705
269,213;  283,275;  286,336;  285,525
269,303;  299,275;  290,466;  288,585
269,393;  307,275;  299,845;  298,345
269,483;  279,275;  300,966;  302,735
269,572;  273,275;  282,875;  284,665
269,662;  283,275;  276,105;  283,315
269,752;  329,275;  312,736;  315,705
269,841;  281,275;  266,046;  269,455
269,931;  281,275;  281,586;  283,075
270,021;  306,275;  300,766;  304,675
270,110;  277,275;  285,695;  288,925
270,200;  300,275;  291,665;  299,445
270,289;  276,275;  280,785;  281,105
270,379;  298,275;  301,466;  302,775
270,469;  307,275;  290,556;  289,955
270,558;  276,275;  303,655;  302,185
270,648;  280,275;  282,785;  284,885
270,737;  298,275;  288,526;  291,525
270,827;  295,275;  310,185;  313,455
270,916;  285,275;  286,935;  289,915
271,006;  282,275;  293,475;  292,885
271,096;  318,275;  317,005;  317,215
271,185;  291,275;  289,896;  289,145
271,275;  307,275;  300,706;  303,575
271,364;  286,275;  281,535;  285,725
271,454;  299,275;  308,255;  315,275
271,543;  293,275;  296,935;  297,745
271,633;  303,275;  293,926;  292,835
271,722;  289,275;  292,255;  296,455
271,812;  275,275;  286,296;  289,275
271,901;  249,275;  292,326;  293,765
271,990;  312,275;  291,836;  290,915
272,080;  279,275;  290,635;  294,915
272,169;  310,275;  301,905;  302,555
272,259;  297,275;  293,225;  292,695
272,348;  288,275;  305,796;  308,535
272,438;  284,275;  296,935;  293,635
272,527;  283,275;  303,996;  304,365
272,616;  269,275;  301,866;  305,295
272,706;  298,275;  320,935;  323,195
272,795;  316,275;  314,076;  315,755
272,884;  298,275;  297,076;  299,515
272,974;  319,275;  317,975;  319,965
273,063;  346,275;  338,206;  337,765
273,152;  321,275;  310,306;  307,735
273,242;  322,275;  320,276;  324,915
273,331;  295,275;  319,315;  322,835
273,420;  315,275;  301,105;  310,255
273,510;  277,275;  307,355;  308,155
273,599;  294,275;  303,255;  306,195
273,688;  293,275;  302,605;  301,885
273,778;  269,275;  285,065;  287,095
273,867;  309,275;  320,266;  317,015
273,956;  314,275;  303,725;  303,805
274,045;  275,275;  273,966;  275,965
274,135;  276,275;  303,905;  305,375
274,224;  286,275;  286,516;  290,045
274,313;  308,275;  305,586;  307,745
274,402;  273,275;  284,796;  287,085
274,491;  305,275;  310,975;  312,995
274,581;  306,275;  301,415;  302,765
274,670;  309,275;  293,146;  294,385
274,759;  296,275;  299,405;  300,435
274,848;  260,275;  276,655;  279,925
274,937;  314,275;  289,945;  287,635
275,026;  253,275;  285,616;  287,835
275,116;  324,275;  316,415;  315,805
275,205;  282,275;  266,926;  271,135
275,294;  314,275;  302,315;  304,335
275,383;  285,275;  299,905;  297,985
275,472;  292,275;  290,005;  290,825
275,561;  306,275;  290,505;  290,285
275,650;  305,275;  306,046;  306,435
275,739;  271,275;  294,776;  297,985
275,828;  252,275;  274,635;  277,965
275,917;  312,275;  312,065;  306,825
276,006;  313,275;  295,426;  296,835
276,095;  290,275;  294,526;  298,665
276,184;  311,275;  309,556;  307,945
276,273;  288,275;  303,105;  304,505
276,362;  294,275;  275,896;  278,535
276,451;  272,275;  291,306;  291,915
276,540;  297,275;  295,896;  296,105
276,629;  303,275;  292,576;  293,225
276,718;  274,275;  270,695;  274,545
276,807;  257,275;  271,625;  274,825
276,896;  280,275;  280,526;  284,495
276,985;  258,275;  283,616;  289,365
277,074;  303,275;  299,105;  300,525
277,163;  275,275;  294,746;  299,085
277,252;  272,275;  279,646;  276,465
277,341;  290,275;  281,236;  289,265
277,430;  285,275;  276,845;  279,355
277,519;  267,275;  298,956;  301,695
277,608;  291,275;  266,546;  267,775
277,696;  280,275;  266,975;  269,445
277,785;  293,275;  284,095;  283,485
277,874;  310,275;  299,605;  296,795
277,963;  281,275;  288,155;  289,995
278,052;  273,275;  264,776;  265,525
278,141;  276,275;  288,415;  290,745
278,229;  310,275;  290,146;  291,935
278,318;  263,275;  268,236;  271,495
278,407;  256,275;  285,576;  285,935
278,496;  282,275;  289,915;  291,965
278,585;  298,275;  300,486;  302,275
278,673;  277,275;  263,836;  266,715
278,762;  247,275;  266,176;  270,485
278,851;  284,275;  285,496;  286,035
278,940;  303,275;  303,685;  303,305
279,028;  293,275;  296,306;  299,585
279,117;  280,275;  282,725;  286,655
279,206;  285,275;  279,475;  284,105
279,294;  274,275;  284,396;  286,665
279,383;  281,275;  286,646;  287,335
279,472;  288,275;  298,095;  298,295
279,561;  266,275;  283,355;  284,975
279,649;  290,275;  308,535;  308,935
279,738;  265,275;  255,566;  255,215
279,827;  298,275;  306,785;  308,805
279,915;  286,275;  275,285;  276,335
280,004;  303,275;  286,565;  288,905
280,092;  317,275;  305,236;  306,635
280,181;  280,275;  280,516;  282,605
280,270;  301,275;  277,866;  281,595
280,358;  303,275;  291,366;  288,915
280,447;  299,275;  261,415;  264,455
280,535;  278,275;  276,016;  275,945
280,624;  258,275;  274,185;  276,805
280,713;  278,275;  277,146;  283,385
280,801;  297,275;  293,116;  293,805
280,890;  301,275;  289,716;  295,475
280,978;  289,275;  280,755;  281,945
281,067;  243,275;  250,676;  255,865
281,155;  245,275;  274,855;  275,705
281,244;  288,275;  313,595;  316,445
281,332;  310,275;  290,845;  293,825
281,421;  274,275;  271,605;  273,675
281,509;  287,275;  284,646;  282,415
281,598;  276,275;  262,435;  263,765
281,686;  282,275;  290,776;  288,945
281,775;  259,275;  285,516;  290,815
281,863;  287,275;  278,016;  279,225
281,951;  277,275;  267,665;  270,735
282,040;  300,275;  300,315;  301,115
282,128;  321,275;  288,375;  294,235
282,217;  257,275;  265,926;  266,075
282,305;  297,275;  294,796;  294,045
282,393;  312,275;  286,505;  284,595
282,482;  276,275;  279,535;  283,255
282,570;  270,275;  266,945;  270,215
282,658;  298,275;  276,116;  277,715
282,747;  276,275;  265,026;  267,905
282,835;  316,275;  306,076;  309,035
282,923;  280,275;  264,655;  267,805
283,012;  301,275;  291,366;  296,345
283,100;  247,275;  269,185;  274,675
283,188;  270,275;  261,125;  262,525
283,277;  274,275;  284,336;  284,745
283,365;  268,275;  271,676;  278,375
283,453;  236,275;  264,755;  270,455
283,542;  325,275;  290,896;  293,765
283,630;  267,275;  276,195;  278,595
283,718;  279,275;  271,195;  274,365
283,806;  216,275;  241,706;  247,485
283,894;  252,275;  274,336;  274,395
283,983;  264,275;  282,165;  282,605
284,071;  269,275;  285,285;  291,495
284,159;  319,275;  309,125;  314,805
284,247;  282,275;  287,466;  288,555
284,335;  246,275;  286,935;  287,485
284,424;  294,275;  283,915;  288,465
284,512;  260,275;  283,475;  286,175
284,600;  269,275;  279,415;  280,145
284,688;  347,275;  312,815;  317,115
284,776;  285,275;  286,815;  287,745
284,864;  345,275;  302,125;  308,655
284,952;  290,275;  289,625;  289,025
285,041;  260,275;  298,255;  298,145
285,129;  317,275;  299,435;  302,445
285,217;  336,275;  300,056;  303,885
285,305;  308,275;  318,676;  319,885
285,393;  229,275;  275,776;  278,695
285,481;  256,275;  296,665;  298,405
285,569;  276,275;  282,966;  285,145
285,657;  308,275;  295,165;  296,255
285,745;  274,275;  292,655;  293,125
285,833;  280,275;  289,505;  293,165
285,921;  296,275;  298,116;  300,945
286,009;  326,275;  301,105;  303,655
286,097;  308,275;  298,236;  301,315
286,185;  273,275;  284,405;  284,795
286,273;  284,275;  283,415;  284,655
286,361;  310,275;  307,915;  311,825
286,449;  309,275;  296,195;  294,565
286,537;  312,275;  304,105;  302,085
286,625;  286,275;  291,185;  293,415
286,713;  274,275;  275,806;  280,315
286,801;  311,275;  312,076;  307,795
286,889;  310,275;  319,435;  320,055
286,976;  270,275;  287,905;  291,205
287,064;  315,275;  307,635;  311,875
287,152;  293,275;  303,576;  305,585
287,240;  327,275;  309,185;  308,845
287,328;  267,275;  287,685;  281,755
287,416;  299,275;  290,975;  292,385
287,504;  299,275;  294,435;  298,285
287,591;  318,275;  298,176;  300,225
287,679;  277,275;  286,095;  286,145
287,767;  303,275;  298,206;  296,985
287,855;  291,275;  303,736;  307,515
287,943;  307,275;  306,716;  309,435
288,030;  279,275;  293,456;  291,795
288,118;  346,275;  318,255;  318,995
288,206;  269,275;  274,956;  275,705
288,294;  321,275;  301,986;  304,135
288,382;  287,275;  300,776;  303,615
288,469;  299,275;  304,396;  308,895
288,557;  283,275;  294,095;  292,615
288,645;  340,275;  323,396;  323,315
288,732;  284,275;  278,915;  279,235
288,820;  323,275;  304,576;  306,785
288,908;  319,275;  304,826;  303,915
288,995;  307,275;  310,945;  310,305
289,083;  268,275;  293,026;  292,935
289,171;  354,275;  320,165;  325,565
289,258;  367,275;  322,176;  324,305
289,346;  433,275;  326,266;  329,365
289,434;  347,275;  303,435;  306,185
289,521;  294,275;  280,415;  286,295
289,609;  349,275;  320,426;  325,405
289,697;  287,275;  312,336;  315,125
289,784;  290,275;  295,445;  295,775
289,872;  293,275;  306,905;  313,015
289,959;  263,275;  282,375;  283,415
290,047;  298,275;  296,546;  300,865
290,134;  285,275;  272,665;  273,815
290,222;  301,275;  308,915;  308,665
290,310;  290,275;  304,905;  307,145
290,397;  337,275;  328,505;  332,835
290,485;  289,275;  290,815;  293,005
290,572;  308,275;  313,225;  314,645
290,660;  328,275;  306,385;  306,205
290,747;  271,275;  295,165;  292,775
290,835;  304,275;  299,016;  302,505
290,922;  304,275;  304,016;  305,515
291,009;  276,275;  297,676;  301,715
291,097;  270,275;  297,926;  300,755
291,184;  335,275;  332,716;  338,585
291,272;  278,275;  282,966;  288,375
291,359;  290,275;  283,915;  289,305
291,447;  290,275;  303,086;  304,735
291,534;  351,275;  327,326;  323,005
291,621;  303,275;  302,845;  301,105
291,709;  287,275;  285,716;  283,705
291,796;  331,275;  320,146;  316,555
291,884;  267,275;  291,466;  296,115
291,971;  303,275;  315,065;  320,295
292,058;  295,275;  288,725;  288,985
292,146;  289,275;  293,746;  297,955
292,233;  299,275;  285,426;  284,765
292,320;  263,275;  294,306;  297,685
292,408;  291,275;  309,086;  308,565
292,495;  309,275;  290,565;  293,085
292,582;  274,275;  286,845;  287,375
292,669;  249,275;  281,415;  286,055
292,757;  255,275;  282,176;  283,865
292,844;  299,275;  312,935;  313,175
292,931;  288,275;  275,176;  277,485
293,018;  285,275;  291,516;  289,915
293,106;  312,275;  299,966;  303,035
293,193;  261,275;  272,415;  274,385
293,280;  307,275;  297,255;  303,635
293,367;  282,275;  296,956;  295,215
293,455;  294,275;  293,185;  294,155
293,542;  258,275;  275,695;  281,445
293,629;  286,275;  279,035;  281,855
293,716;  303,275;  305,646;  311,195
293,803;  283,275;  287,105;  287,695
293,890;  311,275;  310,336;  312,555
293,978;  291,275;  284,105;  290,755
294,065;  285,275;  286,725;  284,345
294,152;  315,275;  302,385;  304,355
294,239;  259,275;  275,646;  274,625
294,326;  289,275;  286,746;  290,635
294,413;  293,275;  278,046;  278,465
294,500;  310,275;  292,586;  295,255
294,587;  313,275;  283,915;  287,195
294,674;  285,275;  305,875;  306,925
294,761;  282,275;  288,896;  287,945
294,848;  294,275;  286,866;  294,115
294,935;  317,275;  290,746;  290,555
295,022;  264,275;  272,396;  274,105
295,109;  254,275;  258,466;  262,665
295,196;  277,275;  291,405;  295,265
295,283;  289,275;  281,176;  278,745
295,370;  312,275;  308,975;  312,155
295,457;  278,275;  289,986;  290,435
295,544;  307,275;  285,105;  287,985
295,631;  290,275;  290,165;  295,805
295,718;  258,275;  272,676;  274,015
295,805;  270,275;  296,225;  296,685
295,892;  291,275;  300,005;  304,445
295,979;  281,275;  291,266;  292,755
296,066;  271,275;  293,996;  296,145
296,153;  311,275;  296,026;  296,355
296,240;  287,275;  299,206;  300,535
296,327;  305,275;  285,206;  285,615
296,413;  326,275;  301,285;  305,075
296,500;  303,275;  302,755;  305,145
296,587;  543,275;  288,616;  286,065
296,674; 1607,275;  294,396;  297,335
296,761;  844,275;  300,095;  298,245
296,848;  283,275;  281,956;  285,815
296,934;  293,275;  290,966;  295,265
297,021;  275,275;  292,565;  292,975
297,108;  267,275;  276,366;  280,895
297,195;  302,275;  291,466;  294,705
297,282;  269,275;  286,535;  286,195
297,368;  304,275;  310,026;  305,975
297,455;  285,275;  279,155;  283,145
297,542;  309,275;  311,375;  313,235
297,629;  303,275;  299,016;  300,205
297,715;  294,275;  308,285;  310,385
297,802;  298,275;  300,466;  303,285
297,889;  336,275;  311,716;  313,025
297,975;  362,275;  322,836;  323,685
298,062;  327,275;  310,505;  312,995
298,149;  285,275;  273,505;  274,905
298,235;  289,275;  291,135;  294,075
298,322;  278,275;  294,806;  292,785
298,409;  307,275;  311,195;  312,715
298,495;  257,275;  285,435;  283,435
298,582;  302,275;  307,516;  308,065
298,669;  284,275;  290,526;  294,245
298,755;  287,275;  299,065;  302,235
298,842;  281,275;  304,755;  309,095
298,928;  304,275;  303,855;  304,595
299,015;  307,275;  294,896;  296,705
299,102;  340,275;  318,986;  320,565
299,188;  301,275;  315,956;  316,045
299,275;  320,275;  309,926;  309,365
299,361;  276,275;  278,875;  281,665
299,448;  303,275;  312,466;  310,885
299,534;  308,275;  312,355;  312,735
299,621;  320,275;  304,655;  303,865
299,707;  288,275;  299,016;  304,675
299,794;  292,275;  319,885;  319,685
299,880;  319,275;  317,076;  318,325
299,967;  290,275;  296,345;  296,295
300,053;  298,275;  295,935;  299,065
300,140;  328,275;  323,086;  328,875
300,226;  290,275;  313,885;  313,595
300,312;  321,275;  307,276;  306,695
300,399;  299,275;  305,505;  308,465
300,485;  295,275;  297,776;  301,725
300,572;  264,275;  281,655;  281,655
300,658;  297,275;  297,216;  294,585
300,744;  312,275;  310,706;  311,315
300,831;  339,275;  313,595;  318,275
300,917;  303,275;  321,676;  320,915
301,004;  302,275;  311,556;  311,015
301,090;  242,275;  277,785;  280,095
301,176;  272,275;  284,255;  288,205
301,263;  295,275;  313,676;  314,925
301,349;  273,275;  289,475;  293,305
301,435;  287,275;  284,276;  285,095
301,521;  299,275;  314,625;  313,245
301,608;  308,275;  314,695;  315,515
301,694;  307,275;  297,896;  300,535
301,780;  296,275;  303,046;  298,285
301,867;  277,275;  280,836;  285,265
301,953;  329,275;  296,595;  301,165
302,039;  368,275;  295,116;  297,515
302,125;  531,275;  298,445;  304,125
302,211;  364,275;  332,926;  334,115
302,298;  372,275;  301,926;  305,295
302,384;  306,275;  281,116;  287,095
302,470;  294,275;  289,505;  291,305
302,556;  301,275;  301,935;  305,645
302,642;  264,275;  293,456;  295,155
302,729;  300,275;  289,306;  293,525
302,815;  309,275;  317,966;  319,775
302,901;  309,275;  296,475;  298,745
302,987;  306,275;  307,716;  308,245
303,073;  280,275;  304,185;  302,795
303,159;  298,275;  296,945;  298,695
303,245;  280,275;  284,336;  290,495
303,331;  284,275;  283,486;  286,455
303,417;  291,275;  294,556;  296,145
303,503;  302,275;  310,046;  312,155
303,590;  275,275;  289,146;  291,705
303,676;  296,275;  299,505;  300,385
303,762;  278,275;  287,185;  287,835
303,848;  305,275;  311,026;  312,055
303,934;  307,275;  304,915;  307,775
304,020;  285,275;  301,796;  304,745
304,106;  322,275;  309,975;  314,015
304,192;  283,275;  291,796;  296,765
304,278;  278,275;  302,896;  304,455
304,364;  313,275;  323,026;  324,755
304,450;  294,275;  301,496;  304,095
304,535;  289,275;  304,005;  304,245
304,621;  297,275;  301,565;  302,205
304,707;  319,275;  306,296;  307,635
304,793;  326,275;  318,625;  318,575
304,879;  325,275;  306,776;  310,585
304,965;  294,275;  312,845;  313,365
305,051;  296,275;  308,616;  311,355
305,137;  317,275;  318,146;  324,235
305,223;  283,275;  291,445;  293,725
305,309;  318,275;  313,496;  317,755
305,394;  297,275;  311,996;  311,465
305,480;  264,275;  299,426;  304,775
305,566;  308,275;  309,355;  310,525
305,652;  311,275;  313,605;  317,885
305,738;  341,275;  349,206;  353,435
305,824;  328,275;  316,016;  315,095
305,909;  312,275;  323,815;  325,155
305,995;  288,275;  289,595;  290,025
306,081;  339,275;  348,345;  350,435
306,167;  300,275;  303,966;  307,875
306,252;  348,275;  324,375;  325,505
306,338;  310,275;  331,366;  335,515
306,424;  304,275;  306,595;  307,415
306,510;  323,275;  316,105;  319,795
306,595;  310,275;  323,685;  322,125
306,681;  332,275;  316,926;  318,895
306,767;  323,275;  305,336;  309,425
306,852;  322,275;  328,255;  331,375
306,938;  297,275;  325,796;  325,905
307,024;  283,275;  302,875;  304,755
307,109;  338,275;  336,065;  338,965
307,195;  337,275;  316,326;  318,385
307,281;  315,275;  318,716;  318,575
307,366;  300,275;  313,345;  310,455
307,452;  321,275;  312,426;  316,335
307,537;  289,275;  296,776;  298,485
307,623;  306,275;  292,105;  296,985
307,709;  311,275;  309,885;  310,795
307,794;  312,275;  288,576;  291,835
307,880;  338,275;  320,236;  319,735
307,965;  296,275;  307,456;  307,525
308,051;  279,275;  297,195;  298,065
308,136;  299,275;  297,165;  296,745
308,222;  318,275;  300,366;  302,045
308,307;  295,275;  295,116;  296,645
308,393;  260,275;  295,535;  300,335
308,478;  319,275;  321,826;  318,975
308,564;  295,275;  295,516;  288,925
308,649;  307,275;  308,496;  308,295
308,735;  283,275;  294,155;  300,535
308,820;  310,275;  320,655;  319,455
308,906;  287,275;  291,625;  300,515
308,991;  355,275;  341,076;  338,375
309,076;  323,275;  319,336;  320,645
309,162;  295,275;  283,945;  283,805
309,247;  317,275;  309,945;  308,415
309,333;  275,275;  291,646;  297,855
309,418;  293,275;  298,665;  301,955
309,503;  269,275;  297,646;  300,235
309,589;  301,275;  303,725;  305,345
309,674;  294,275;  290,945;  289,235
309,759;  307,275;  303,315;  304,195
309,845;  292,275;  311,016;  312,415
309,930;  304,275;  305,966;  307,375
310,015;  290,275;  276,095;  276,835
310,101;  329,275;  315,616;  319,905
310,186;  291,275;  285,426;  288,565
310,271;  296,275;  297,296;  298,295
310,357;  294,275;  297,526;  296,455
310,442;  299,275;  302,445;  303,865
310,527;  308,275;  297,766;  301,125
310,612;  255,275;  278,195;  281,425
310,698;  306,275;  319,725;  321,135
310,783;  275,275;  301,176;  302,685
310,868;  283,275;  294,285;  295,125
310,953;  266,275;  284,165;  285,195
311,038;  315,275;  311,146;  310,075
311,124;  297,275;  294,635;  290,925
311,209;  283,275;  276,736;  277,355
311,294;  281,275;  310,206;  312,575
311,379;  271,275;  276,785;  277,345
311,464;  321,275;  297,405;  297,635
311,549;  280,275;  282,385;  284,505
311,634;  289,275;  290,396;  286,805
311,719;  322,275;  316,016;  315,415
311,805;  277,275;  289,266;  291,605
311,890;  306,275;  295,165;  295,925
311,975;  270,275;  281,526;  286,055
312,060;  296,275;  298,146;  302,435
312,145;  265,275;  277,586;  276,025
312,230;  296,275;  290,815;  296,495
312,315;  331,275;  294,065;  296,045
312,400;  387,275;  296,396;  299,795
312,485; 1534,275;  290,535;  292,475
312,570; 1294,275;  277,125;  279,615
312,655;  344,275;  308,176;  313,325
312,740;  351,275;  301,616;  302,005
312,825;  291,275;  304,105;  307,725
312,910;  351,275;  307,736;  309,235
312,995;  445,275;  296,236;  298,245
313,080; 1934,275;  285,655;  286,805
313,165; 2157,275;  303,565;  305,305
313,250;  369,275;  287,276;  287,825
313,335;  297,275;  307,435;  312,125
313,419;  274,275;  267,466;  268,635
313,504;  329,275;  313,355;  315,225
313,589;  296,275;  295,216;  297,545
313,674;  310,275;  307,206;  310,085
313,759;  280,275;  281,556;  282,625
313,844;  307,275;  292,776;  291,005
313,929;  254,275;  289,945;  291,695
314,014;  300,275;  313,306;  315,005
314,098;  305,275;  299,035;  300,425
314,183;  260,275;  263,505;  263,795
314,268;  301,275;  296,496;  298,955
314,353;  317,275;  302,026;  306,185
314,438;  330,275;  306,905;  311,515
314,522;  316,275;  309,486;  308,535
314,607;  290,275;  307,565;  307,855
314,692;  330,275;  301,885;  303,855
314,777;  300,275;  291,766;  292,395
314,861;  281,275;  277,285;  276,385
314,946;  318,275;  315,116;  317,565
315,031;  301,275;  291,875;  294,115
315,115;  315,275;  306,206;  308,065
315,200;  316,275;  312,146;  313,065
315,285;  312,275;  289,486;  289,595
315,369;  267,275;  287,945;  288,545
315,454;  318,275;  311,905;  311,025
315,539;  303,275;  310,246;  307,795
315,623;  262,275;  309,426;  313,225
315,708;  336,275;  335,605;  336,825
315,793;  315,275;  297,986;  298,155
315,877;  287,275;  302,975;  305,445
315,962;  285,275;  289,105;  291,925
316,046;  321,275;  317,065;  319,225
316,131;  298,275;  334,516;  337,215
316,216;  299,275;  310,315;  310,785
316,300;  301,275;  303,345;  302,165
316,385;  318,275;  325,315;  324,305
316,469;  328,275;  330,625;  331,955
316,554;  307,275;  296,005;  298,425
316,638;  291,275;  296,725;  301,565
316,723;  304,275;  292,546;  293,795
316,807;  291,275;  299,595;  299,275
316,892;  282,275;  288,975;  289,925
316,976;  333,275;  314,405;  316,505
317,061;  333,275;  306,035;  305,965
317,145;  338,275;  327,655;  325,965
317,230;  279,275;  321,505;  319,905
317,314;  273,275;  275,565;  275,085
317,398;  296,275;  310,706;  312,245
317,483;  290,275;  290,026;  291,085
317,567;  297,275;  315,326;  317,865
317,652;  283,275;  283,526;  286,625
317,736;  318,275;  308,776;  309,285
317,820;  354,275;  329,005;  334,665
317,905;  329,275;  306,706;  307,035
317,989;  258,275;  298,285;  300,875
318,073;  297,275;  298,076;  297,705
318,158;  299,275;  284,966;  285,565
318,242;  271,275;  296,845;  299,095
318,326;  292,275;  283,155;  284,015
318,411;  273,275;  295,125;  296,565
318,495;  294,275;  285,776;  287,165
318,579;  291,275;  288,746;  289,305
318,664;  279,275;  280,315;  284,255
318,748;  282,275;  305,996;  310,145
318,832;  262,275;  290,806;  289,475
318,916;  293,275;  274,785;  277,335
319,001;  303,275;  299,945;  301,485
319,085;  285,275;  292,885;  290,905
319,169;  275,275;  293,396;  294,485
319,253;  285,275;  287,216;  285,525
319,337;  298,275;  306,246;  304,885
319,422;  319,275;  316,125;  313,225
319,506;  268,275;  283,326;  285,905
319,590;  307,275;  303,915;  305,525
319,674;  264,275;  291,926;  295,405
319,758;  313,275;  295,165;  300,215
319,842;  323,275;  306,135;  309,155
319,926;  308,275;  294,815;  295,205
320,010;  245,275;  267,046;  269,575
320,095;  310,275;  280,926;  284,685
320,179;  262,275;  279,125;  281,175
320,263;  301,275;  277,385;  285,805
320,347;  286,275;  271,296;  279,075
320,431;  264,275;  273,435;  274,355
320,515;  289,275;  296,375;  299,935
320,599;  263,275;  269,866;  273,825
320,683;  306,275;  305,706;  305,495
320,767;  281,275;  266,236;  266,205
320,851;  310,275;  281,855;  287,785
320,935;  340,275;  312,565;  318,275
321,019;  301,275;  292,975;  290,075
321,103;  289,275;  278,135;  280,585
321,187;  284,275;  273,165;  273,265
321,271;  271,275;  294,616;  296,825
321,355;  266,275;  281,595;  283,805
321,439;  278,275;  301,216;  301,725
321,523;  280,275;  282,266;  284,705
321,606;  274,275;  287,426;  288,215
321,690;  279,275;  287,026;  288,215
321,774;  287,275;  288,336;  292,205
321,858;  271,275;  292,966;  291,945
321,942;  286,275;  294,276;  298,975
322,026;  301,275;  283,315;  282,695
322,110;  291,275;  293,146;  295,755
322,194;  279,275;  295,355;  301,055
322,277;  297,275;  286,135;  287,285
322,361;  275,275;  278,595;  281,215
322,445;  274,275;  289,315;  291,095
322,529;  289,275;  297,716;  299,645
322,613;  299,275;  297,206;  297,795
322,696;  262,275;  267,695;  272,865
322,780;  285,275;  283,026;  283,485
322,864;  259,275;  272,625;  279,835
322,948;  280,275;  292,326;  295,965
323,031;  243,275;  281,565;  282,215
323,115;  257,275;  284,586;  285,215
323,199;  292,275;  296,565;  299,105
323,282;  269,275;  307,496;  310,065
323,366;  304,275;  287,296;  293,625
323,450;  259,275;  273,496;  275,835
323,533;  318,275;  314,576;  317,415
323,617;  272,275;  268,695;  271,585
323,701;  274,275;  281,105;  283,575
323,784;  290,275;  292,576;  294,205
323,868;  305,275;  297,866;  299,875
323,952;  287,275;  290,966;  294,175
324,035;  286,275;  305,926;  310,825
324,119;  279,275;  295,466;  298,455
324,202;  303,275;  286,836;  292,745
324,286;  282,275;  284,986;  286,605
324,370;  303,275;  293,105;  296,765
324,453;  271,275;  299,616;  301,745
324,537;  303,275;  294,426;  298,035
324,620;  271,275;  286,635;  291,765
324,704;  283,275;  270,445;  276,525
324,787;  285,275;  294,875;  296,265
324,871;  305,275;  310,986;  315,255
324,954;  305,275;  312,246;  315,985
325,038;  323,275;  306,466;  306,985
325,121;  309,275;  308,695;  312,075
325,205;  294,275;  290,396;  293,295
325,288;  284,275;  279,556;  285,675
325,371;  324,275;  298,945;  302,395
325,455;  299,275;  314,026;  312,045
325,538;  250,275;  281,516;  287,185
325,622;  291,275;  320,806;  321,295
325,705;  282,275;  297,716;  298,675
325,788;  334,275;  313,625;  316,645
325,872;  307,275;  300,796;  300,745
325,955;  309,275;  319,845;  325,065
326,039;  331,275;  309,576;  312,795
326,122;  311,275;  310,746;  311,665
326,205;  295,275;  311,806;  310,235
326,289;  331,275;  313,986;  319,245
326,372;  290,275;  294,746;  299,195
326,455;  323,275;  323,095;  324,405
326,538;  279,275;  312,336;  316,545
326,622;  321,275;  318,396;  320,075
326,705;  293,275;  287,315;  287,875
326,788;  309,275;  321,266;  322,405
326,871;  309,275;  315,576;  317,965
326,955;  315,275;  313,836;  315,225
327,038;  280,275;  310,116;  310,855
327,121;  320,275;  301,516;  307,855
327,204;  326,275;  313,216;  314,045
327,288;  306,275;  328,956;  332,375
327,371;  269,275;  288,185;  296,955
327,454;  328,275;  313,065;  313,845
327,537;  286,275;  299,815;  302,435
327,620;  319,275;  322,935;  330,145
327,703;  295,275;  309,076;  310,615
327,786;  292,275;  311,076;  312,115
327,870;  330,275;  323,155;  328,715
327,953;  311,275;  301,155;  305,785
328,036;  285,275;  293,105;  299,035
328,119;  319,275;  317,576;  321,135
328,202;  310,275;  301,885;  305,875
328,285;  311,275;  326,776;  329,015
328,368;  311,275;  320,935;  322,625
328,451;  332,275;  320,635;  322,565
328,534;  285,275;  301,266;  307,075
328,617;  329,275;  305,676;  311,785
328,700;  331,275;  326,505;  326,695
328,783;  313,275;  320,785;  322,875
328,866;  314,275;  314,095;  319,935
328,949;  294,275;  319,966;  326,555
329,032;  314,275;  297,826;  300,605
329,115;  297,275;  290,905;  295,945
329,198;  278,275;  282,956;  283,785
329,281;  305,275;  299,336;  298,465
329,364;  311,275;  316,246;  319,245
329,447;  293,275;  307,176;  309,255
329,530;  336,275;  328,155;  328,175
329,613;  321,275;  300,565;  306,725
329,696;  322,275;  326,806;  330,715
329,778;  287,275;  311,306;  316,915
329,861;  306,275;  295,236;  299,565
329,944;  322,275;  321,685;  327,225
330,027;  326,275;  311,576;  315,115
330,110;  297,275;  307,595;  311,705
330,193;  319,275;  295,306;  299,955
330,275;  317,275;  312,296;  315,835
330,358;  285,275;  291,776;  296,185
330,441;  353,275;  323,586;  325,365
330,524;  312,275;  305,216;  311,095
330,607;  319,275;  304,345;  306,905
330,689;  332,275;  313,105;  314,535
330,772;  310,275;  311,105;  312,425
330,855;  316,275;  325,065;  327,855
330,938;  308,275;  312,315;  321,275
331,020;  299,275;  317,176;  320,535
331,103;  304,275;  293,035;  294,505
331,186;  297,275;  305,146;  307,085
331,268;  312,275;  293,565;  298,695
331,351;  314,275;  313,026;  316,455
331,434;  301,275;  308,385;  312,645
331,516;  304,275;  319,076;  321,185
331,599;  300,275;  297,095;  301,425
331,682;  296,275;  310,736;  310,985
331,764;  275,275;  293,326;  297,915
331,847;  310,275;  313,716;  315,705
331,929;  284,275;  290,026;  293,225
332,012;  290,275;  309,625;  310,055
332,095;  324,275;  323,306;  326,625
332,177;  327,275;  320,806;  324,285
332,260;  305,275;  327,526;  328,035
332,342;  290,275;  309,246;  314,445
332,425;  305,275;  312,516;  311,505
332,507;  318,275;  308,526;  311,575
332,590;  277,275;  287,595;  291,655
332,672;  288,275;  294,885;  298,455
332,755;  283,275;  306,855;  311,605
332,837;  302,275;  310,716;  312,255
332,920;  307,275;  309,076;  315,155
333,002;  318,275;  325,676;  328,895
333,085;  300,275;  313,375;  315,165
333,167;  281,275;  296,875;  298,575
333,249;  299,275;  294,526;  298,145
333,332;  299,275;  293,296;  297,715
333,414;  305,275;  300,035;  304,875
333,497;  314,275;  300,255;  302,305
333,579;  296,275;  300,996;  306,375
333,661;  309,275;  319,706;  320,745
333,744;  291,275;  293,695;  297,125
333,826;  302,275;  305,766;  306,065
333,908;  329,275;  313,896;  316,665
333,991;  320,275;  291,266;  291,545
334,073;  456,275;  312,706;  318,525
334,155;  349,275;  304,086;  305,525
334,238;  333,275;  318,576;  326,145
334,320;  308,275;  297,046;  300,585
334,402;  304,275;  302,996;  304,895
334,485;  306,275;  303,655;  304,015
334,567;  310,275;  299,776;  301,975
334,649;  248,275;  278,426;  282,925
334,731;  316,275;  313,456;  317,305
334,813;  306,275;  315,605;  320,355
334,896;  305,275;  290,185;  294,595
334,978;  297,275;  309,165;  302,585
335,060;  314,275;  304,255;  304,235
335,142;  312,275;  301,665;  302,275
335,224;  331,275;  309,766;  311,745
335,307;  298,275;  297,456;  298,965
335,389;  332,275;  310,385;  317,305
335,471;  307,275;  299,896;  306,115
335,553;  306,275;  319,866;  318,905
335,635;  301,275;  312,836;  315,315
335,717;  295,275;  298,195;  300,145
335,799;  320,275;  322,695;  323,585
335,881;  289,275;  278,385;  282,845
335,963;  287,275;  291,796;  293,005
336,045;  298,275;  295,516;  301,085
336,128;  299,275;  270,945;  275,225
336,210;  278,275;  288,996;  292,295
336,292;  288,275;  297,845;  300,615
336,374;  337,275;  300,956;  306,155
336,456;  279,275;  285,616;  288,495
336,538;  281,275;  303,165;  304,435
336,620;  319,275;  310,576;  312,205
336,702;  298,275;  294,766;  294,235
336,783;  286,275;  302,556;  304,225
336,865;  323,275;  304,176;  305,725
336,947;  326,275;  308,486;  311,205
337,029;  293,275;  281,826;  282,945
337,111;  331,275;  316,266;  316,735
337,193;  267,275;  280,986;  284,795
337,275;  319,275;  310,815;  314,535
337,357;  315,275;  318,815;  324,805
337,439;  306,275;  305,255;  310,655
337,521;  303,275;  277,225;  280,915
337,602;  293,275;  298,435;  301,085
337,684;  295,275;  315,635;  317,455
337,766;  295,275;  312,266;  312,305
337,848;  301,275;  295,086;  301,025
337,930;  313,275;  303,165;  306,525
338,012;  298,275;  298,586;  299,555
338,093;  317,275;  312,396;  315,895
338,175;  313,275;  318,195;  321,575
338,257;  334,275;  306,945;  309,225
338,339;  302,275;  294,086;  300,165
338,420;  321,275;  310,986;  310,895
338,502;  326,275;  298,836;  304,265
338,584;  288,275;  286,736;  289,235
338,666;  307,275;  303,426;  302,365
338,747;  339,275;  330,806;  334,875
338,829;  324,275;  309,176;  309,265
338,911;  291,275;  296,236;  298,915
338,992;  294,275;  295,746;  294,435
339,074;  301,275;  306,155;  307,855
339,156;  335,275;  298,176;  303,395
339,237;  318,275;  325,035;  327,765
339,319;  299,275;  294,935;  300,045
339,400;  313,275;  309,065;  311,225
339,482;  274,275;  278,165;  280,605
339,564;  307,275;  317,026;  316,575
339,645;  291,275;  304,595;  308,105
339,727;  293,275;  290,216;  294,375
339,808;  322,275;  317,685;  322,555
339,890;  327,275;  299,956;  302,415
339,971;  303,275;  307,016;  315,055
340,053;  323,275;  336,746;  335,255
340,134;  304,275;  296,535;  298,415
340,216;  323,275;  315,556;  319,645
340,297;  299,275;  298,396;  301,525
340,379;  285,275;  314,736;  316,975
340,460;  301,275;  306,685;  306,615
340,542;  310,275;  294,535;  297,775
340,623;  315,275;  307,926;  312,435
340,705;  319,275;  297,516;  295,795
340,786;  290,275;  289,685;  291,925
340,868;  294,275;  308,826;  304,055
340,949;  275,275;  285,605;  286,145
341,030;  311,275;  321,435;  328,715
341,112;  277,275;  280,565;  284,075
341,193;  285,275;  270,135;  273,595
341,274;  319,275;  322,176;  320,965
341,356;  331,275;  320,716;  321,795
341,437;  305,275;  301,635;  300,825
341,518;  324,275;  307,176;  314,795
341,600;  310,275;  320,866;  322,465
341,681;  339,275;  328,866;  332,375
341,762;  317,275;  325,206;  323,705
341,844;  274,275;  287,146;  292,185
341,925;  300,275;  308,225;  311,205
342,006;  331,275;  320,426;  323,055
342,087;  287,275;  288,095;  292,095
342,169;  326,275;  307,026;  309,845
342,250;  285,275;  286,935;  285,935
342,331;  302,275;  298,706;  299,075
342,412;  305,275;  307,655;  310,045
342,493;  297,275;  289,415;  293,325
342,575;  331,275;  327,095;  327,355
342,656;  302,275;  318,466;  318,265
342,737;  359,275;  329,836;  330,295
342,818;  326,275;  307,996;  309,015
342,899;  324,275;  314,505;  317,165
342,980;  305,275;  306,695;  310,155
343,061;  271,275;  303,065;  304,715
343,143;  297,275;  319,535;  319,565
343,224;  311,275;  306,706;  305,915
343,305;  312,275;  299,625;  303,115
343,386;  286,275;  297,996;  300,475
343,467;  293,275;  303,155;  305,535
343,548;  298,275;  304,176;  305,935
343,629;  319,275;  316,405;  317,625
343,710;  312,275;  322,766;  321,015
343,791;  313,275;  325,065;  327,935
343,872;  290,275;  298,975;  297,795
343,953;  313,275;  314,826;  316,625
344,034;  345,275;  319,475;  324,485
344,115;  274,275;  304,255;  303,425
344,196;  304,275;  298,935;  302,165
344,277;  283,275;  293,306;  294,615
344,358;  318,275;  304,755;  307,345
344,439;  300,275;  293,975;  294,205
344,520;  305,275;  298,546;  300,975
344,601;  318,275;  314,646;  315,525
344,681;  313,275;  302,426;  303,825
344,762;  269,275;  283,466;  287,625
344,843;  286,275;  275,996;  281,125
344,924;  298,275;  303,635;  306,085
345,005;  281,275;  287,176;  288,725
345,086;  280,275;  307,665;  309,725
345,167;  260,275;  293,986;  295,575
345,247;  329,275;  323,896;  328,905
345,328;  317,275;  315,315;  317,705
345,409;  314,275;  307,056;  309,355
345,490;  298,275;  308,415;  314,245
345,571;  304,275;  304,875;  312,045
345,651;  262,275;  279,456;  279,055
345,732;  294,275;  307,285;  312,275
345,813;  303,275;  311,836;  317,355
345,894;  287,275;  285,785;  287,595
345,974;  330,275;  309,556;  311,845
346,055;  313,275;  296,435;  295,735
346,136;  311,275;  304,405;  306,245
346,216;  335,275;  324,945;  328,565
346,297;  301,275;  306,565;  304,225
346,378;  267,275;  291,996;  294,005
346,458;  266,275;  307,375;  313,405
346,539;  339,275;  302,306;  305,975
346,620;  287,275;  305,815;  306,685
346,700;  292,275;  288,755;  289,765
346,781;  307,275;  284,556;  286,765
346,861;  301,275;  304,336;  307,325
346,942;  281,275;  304,336;  302,715
347,023;  331,275;  317,885;  316,005
347,103;  302,275;  297,396;  302,825
347,184;  309,275;  294,475;  296,785
347,264;  312,275;  294,565;  296,805
347,345;  302,275;  290,526;  295,525
347,425;  291,275;  285,125;  290,565
347,506;  263,275;  283,595;  283,195
347,586;  304,275;  289,725;  292,435
347,667;  290,275;  307,616;  304,445
347,747;  303,275;  311,116;  310,775
347,828;  293,275;  296,486;  296,465
347,908;  307,275;  303,306;  307,175
347,988;  318,275;  298,655;  306,125
348,069;  295,275;  311,056;  311,395
348,149;  311,275;  303,956;  309,065
348,230;  322,275;  309,956;  310,945
348,310;  297,275;  284,185;  285,715
348,390;  299,275;  288,526;  288,625
348,471;  297,275;  303,665;  305,125
348,551;  283,275;  290,695;  293,935
348,632;  273,275;  289,505;  294,065
348,712;  274,275;  292,706;  295,115
348,792;  331,275;  329,836;  329,985
348,873;  312,275;  281,905;  283,045
348,953;  299,275;  289,845;  290,395
349,033;  288,275;  297,466;  299,465
349,113;  267,275;  286,076;  286,905
349,194;  333,275;  301,595;  304,825
349,274;  312,275;  304,796;  307,395
349,354;  265,275;  303,046;  308,435
349,434;  322,275;  300,116;  301,925
349,515;  315,275;  316,486;  322,185
349,595;  314,275;  302,206;  302,035
349,675;  306,275;  305,635;  308,015
349,755;  294,275;  296,746;  297,615
349,835;  301,275;  301,195;  307,695
349,916;  303,275;  298,435;  303,915
349,996;  259,275;  291,105;  291,745
350,076;  309,275;  312,375;  317,645
350,156;  295,275;  284,836;  287,665
350,236;  316,275;  314,116;  311,925
350,316;  285,275;  292,975;  295,765
350,396;  305,275;  305,646;  310,065
350,476;  288,275;  301,826;  304,275
350,556;  279,275;  293,966;  299,935
350,637;  326,275;  321,005;  321,825
350,717;  274,275;  288,445;  291,825
350,797;  288,275;  302,616;  305,905
350,877;  292,275;  289,875;  294,705
350,957;  293,275;  297,635;  300,095
351,037;  339,275;  298,556;  303,455
351,117;  285,275;  296,276;  296,555
351,197;  296,275;  303,366;  306,305
351,277;  308,275;  300,556;  301,575
351,357;  288,275;  308,806;  314,445
351,437;  327,275;  306,105;  307,755
351,516;  334,275;  317,986;  318,355
351,596;  260,275;  292,896;  296,025
351,676;  282,275;  290,405;  294,265
351,756;  306,275;  323,426;  326,135
351,836;  307,275;  313,866;  317,935
351,916;  295,275;  297,905;  298,975
351,996;  320,275;  303,996;  305,265
352,076;  283,275;  303,486;  303,085
352,156;  305,275;  319,556;  320,405
352,235;  315,275;  301,255;  300,955
352,315;  289,275;  312,456;  314,415
352,395;  312,275;  308,206;  309,425
352,475;  329,275;  315,405;  320,955
352,555;  296,275;  330,236;  330,635
352,634;  337,275;  321,956;  326,705
352,714;  320,275;  302,595;  304,055
352,794;  344,275;  354,466;  358,075
352,874;  298,275;  314,685;  317,555
352,953;  334,275;  337,676;  339,095
353,033;  328,275;  319,306;  320,925
353,113;  318,275;  332,135;  336,575
353,193;  328,275;  328,046;  329,935
353,272;  329,275;  333,135;  334,365
353,352;  339,275;  307,035;  311,285
353,432;  338,275;  343,005;  347,495
353,511;  335,275;  326,185;  330,665
353,591;  380,275;  361,616;  362,555
353,671;  326,275;  331,926;  333,015
353,750;  341,275;  332,296;  331,275
353,830;  303,275;  313,646;  317,015
353,909;  349,275;  339,836;  343,655
353,989;  304,275;  317,385;  320,255
354,069;  313,275;  319,456;  319,155
354,148;  330,275;  335,035;  339,585
354,228;  297,275;  315,695;  316,905
354,307;  314,275;  329,405;  332,345
354,387;  326,275;  322,095;  322,965
354,466;  302,275;  311,635;  316,045
354,546;  319,275;  335,135;  337,645
354,625;  328,275;  319,815;  320,355
354,705;  329,275;  324,246;  326,865
354,784;  303,275;  316,445;  318,195
354,864;  315,275;  316,635;  317,385
354,943;  325,275;  333,695;  339,105
355,023;  338,275;  310,996;  312,285
355,102;  374,275;  362,866;  363,435
355,181;  321,275;  315,966;  318,045
355,261;  357,275;  338,056;  342,165
355,340;  304,275;  303,845;  307,115
355,420;  343,275;  340,105;  342,305
355,499;  317,275;  322,975;  325,635
355,578;  336,275;  315,276;  316,885
355,658;  308,275;  332,875;  333,745
355,737;  334,275;  317,576;  319,005
355,816;  345,275;  323,276;  324,605
355,896;  292,275;  316,026;  321,355
355,975;  314,275;  307,355;  310,055
356,054;  312,275;  311,935;  312,455
356,133;  307,275;  290,565;  293,305
356,213;  332,275;  324,845;  324,825
356,292;  306,275;  304,016;  309,325
356,371;  333,275;  314,146;  314,035
356,451;  312,275;  324,755;  327,685
356,530;  383,275;  349,496;  350,795
356,609;  320,275;  311,146;  315,535
356,688;  319,275;  316,475;  316,165
356,767;  318,275;  304,695;  309,855
356,846;  326,275;  327,035;  327,235
356,926;  331,275;  340,016;  343,965
357,005;  316,275;  318,345;  318,565
357,084;  297,275;  304,466;  308,385
357,163;  321,275;  317,706;  317,185
357,242;  315,275;  320,146;  319,515
357,321;  299,275;  314,496;  316,575
357,400;  316,275;  321,236;  318,865
357,479;  304,275;  317,725;  320,795
357,559;  326,275;  321,405;  325,705
357,638;  299,275;  300,616;  298,815
357,717;  307,275;  313,746;  311,555
357,796;  334,275;  329,266;  330,875
357,875;  292,275;  314,466;  313,455
357,954;  321,275;  310,155;  313,855
358,033;  369,275;  323,405;  320,935
358,112;  297,275;  329,966;  328,315
358,191;  307,275;  315,276;  318,965
358,270;  278,275;  295,505;  297,695
358,349;  318,275;  321,625;  323,725
358,428;  340,275;  322,445;  326,125
358,507;  338,275;  321,366;  325,105
358,585;  317,275;  320,355;  325,525
358,664;  343,275;  332,266;  334,505
358,743;  273,275;  323,776;  326,515
358,822;  344,275;  334,475;  338,195
358,901;  337,275;  309,176;  309,505
358,980;  316,275;  310,885;  313,735
359,059;  333,275;  328,616;  332,255
359,138;  338,275;  329,415;  328,565
359,216;  324,275;  322,225;  327,485
359,295;  290,275;  309,475;  309,515
359,374;  324,275;  330,026;  333,455
359,453;  316,275;  316,345;  320,885
359,532;  295,275;  304,526;  308,455
359,610;  332,275;  319,556;  323,285
359,689;  333,275;  331,116;  333,025
359,768;  316,275;  313,706;  315,305
359,847;  290,275;  302,065;  305,385
359,925;  297,275;  304,105;  307,215
360,004;  304,275;  299,565;  302,585
360,083;  312,275;  320,165;  321,795
360,161;  324,275;  305,676;  309,885
360,240;  299,275;  288,725;  291,455
360,319;  308,275;  318,276;  317,225
360,397;  340,275;  324,986;  331,265
360,476;  308,275;  318,296;  324,355
360,555;  342,275;  345,565;  346,835
360,633;  313,275;  304,456;  304,945
360,712;  294,275;  309,056;  311,825
360,790;  330,275;  330,065;  331,185
360,869;  320,275;  310,266;  313,085
360,948;  295,275;  322,466;  322,235
361,026;  304,275;  300,065;  301,245
361,105;  321,275;  306,116;  309,875
361,183;  315,275;  324,725;  326,345
361,262;  298,275;  302,375;  307,465
361,340;  299,275;  305,815;  306,875
361,419;  278,275;  289,896;  290,845
361,497;  332,275;  340,926;  346,955
361,576;  289,275;  317,736;  323,245
361,654;  339,275;  342,736;  343,615
361,733;  303,275;  297,366;  297,305
361,811;  321,275;  329,065;  331,875
361,890;  294,275;  292,595;  293,595
361,968;  316,275;  313,706;  316,715
362,046;  327,275;  335,296;  335,795
362,125;  327,275;  337,435;  340,865
362,203;  296,275;  314,635;  316,745
362,282;  325,275;  328,676;  334,675
362,360;  334,275;  318,315;  323,125
362,438;  317,275;  313,565;  317,495
362,517;  367,275;  357,725;  357,035
362,595;  330,275;  340,956;  345,025
362,673;  322,275;  334,576;  338,035
362,752;  333,275;  326,366;  329,445
362,830;  346,275;  343,155;  338,795
362,908;  351,275;  322,885;  326,315
362,986;  329,275;  333,595;  334,645
363,065;  333,275;  326,405;  330,985
363,143;  342,275;  359,875;  363,525
363,221;  321,275;  313,755;  319,675
363,299;  313,275;  315,845;  315,595
363,378;  302,275;  327,546;  328,495
363,456;  300,275;  304,326;  305,295
363,534;  339,275;  323,996;  327,895
363,612;  346,275;  327,546;  330,285
363,690;  328,275;  337,885;  341,915
363,769;  333,275;  349,336;  354,965
363,847;  358,275;  332,326;  333,935
363,925;  323,275;  303,095;  306,775
364,003;  357,275;  350,866;  351,845
364,081;  322,275;  336,345;  339,765
364,159;  334,275;  331,836;  334,695
364,237;  341,275;  341,276;  343,025
364,315;  331,275;  318,866;  320,765
364,393;  332,275;  350,935;  355,465
364,471;  333,275;  328,185;  329,975
364,549;  355,275;  333,026;  334,495
364,627;  390,275;  323,095;  327,065
364,705;  363,275;  311,135;  310,945
364,783;  448,275;  323,496;  332,235
364,861;  946,275;  331,396;  334,915
364,939; 3555,275;  314,086;  319,855
365,017;  783,275;  306,046;  310,735
365,095;  399,275;  322,116;  324,495
365,173;  366,275;  345,556;  349,605
365,251;  361,275;  341,535;  344,665
365,329;  511,275;  346,466;  345,195
365,407; 1107,275;  318,345;  321,385
365,485;  449,275;  344,826;  348,395
365,563;  367,275;  344,306;  346,815
365,641;  304,275;  331,896;  331,005
365,719;  367,275;  337,095;  336,965
365,796;  323,275;  334,926;  336,075
365,874;  370,275;  347,426;  349,165
365,952;  287,275;  309,516;  312,925
366,030;  346,275;  334,866;  333,525
366,108;  333,275;  326,345;  328,575
366,185;  611,275;  338,396;  343,695
366,263;  907,275;  334,646;  340,035
366,341;  357,275;  334,125;  339,925
366,419;  345,275;  331,535;  331,355
366,496;  372,275;  342,655;  345,225
366,574;  331,275;  325,826;  329,315
366,652;  351,275;  345,296;  349,635
366,730;  348,275;  365,475;  368,065
366,807;  330,275;  330,845;  334,945
366,885;  342,275;  321,135;  327,175
366,963;  341,275;  329,016;  331,635
367,040;  383,275;  345,815;  352,465
367,118;  318,275;  321,875;  325,205
367,196;  339,275;  341,896;  344,715
367,273;  335,275;  335,845;  338,245
367,351;  328,275;  328,155;  331,125
367,428;  369,275;  355,016;  356,915
367,506;  359,275;  329,225;  333,905
367,584;  337,275;  360,216;  363,085
367,661;  315,275;  341,785;  346,585
367,739;  314,275;  328,466;  334,835
367,816;  344,275;  320,345;  324,175
367,894;  367,275;  339,146;  345,755
367,971;  326,275;  329,885;  333,335
368,049;  371,275;  349,586;  353,435
368,126;  277,275;  314,625;  317,265
368,204;  340,275;  351,836;  352,775
368,281;  337,275;  353,225;  355,775
368,359;  325,275;  348,806;  354,965
368,436;  327,275;  342,385;  348,785
368,514;  338,275;  349,646;  351,035
368,591;  374,275;  343,486;  348,405
368,668;  330,275;  347,486;  351,455
368,746;  342,275;  358,556;  362,125
368,823;  355,275;  342,405;  345,515
368,901;  321,275;  339,046;  341,025
368,978;  359,275;  354,975;  361,925
369,055;  349,275;  343,826;  347,145
369,133;  369,275;  367,046;  368,725
369,210;  359,275;  339,206;  342,185
369,287;  362,275;  367,986;  371,205
369,365;  365,275;  368,896;  369,715
369,442;  342,275;  346,826;  351,135
369,519;  306,275;  306,396;  310,475
369,596;  351,275;  369,005;  372,695
369,674;  291,275;  336,526;  336,705
369,751;  380,275;  368,005;  369,405
369,828;  361,275;  350,366;  351,255
369,905;  341,275;  354,796;  358,705
369,983;  341,275;  329,826;  336,485
370,060;  327,275;  335,185;  336,165
370,137;  380,275;  371,595;  373,975
370,214;  368,275;  340,246;  340,845
370,291;  328,275;  347,845;  351,965
370,368;  346,275;  345,426;  349,675
370,446;  331,275;  335,716;  337,375
370,523;  338,275;  331,586;  338,615
370,600;  356,275;  350,706;  356,355
370,677;  362,275;  345,826;  349,525
370,754;  361,275;  341,706;  344,655
370,831;  327,275;  344,885;  347,665
370,908;  363,275;  368,556;  369,945
370,985;  320,275;  326,206;  327,885
371,062;  355,275;  346,635;  347,955
371,139;  362,275;  362,125;  364,815
371,216;  371,275;  357,496;  359,475
371,293;  349,275;  350,576;  350,305
371,370;  318,275;  328,806;  332,395
371,447;  361,275;  354,736;  355,835
371,524;  369,275;  374,685;  378,505
371,601;  369,275;  371,556;  374,285
371,678;  390,275;  374,306;  375,345
371,755;  377,275;  348,526;  348,275
371,832;  366,275;  374,526;  377,175
371,909;  346,275;  342,065;  344,605
371,986;  352,275;  376,505;  379,065
372,063;  341,275;  346,195;  348,745
372,140;  372,275;  354,056;  357,495
372,216;  365,275;  360,225;  360,935
372,293;  365,275;  341,945;  344,805
372,370;  374,275;  370,236;  372,635
372,447;  352,275;  361,646;  361,385
372,524;  372,275;  349,725;  352,115
372,601;  358,275;  353,236;  356,005
372,677;  322,275;  339,586;  339,035
372,754;  375,275;  347,516;  350,955
372,831;  358,275;  354,716;  356,955
372,908;  356,275;  368,496;  364,795
372,984;  345,275;  349,246;  356,035
373,061;  347,275;  342,046;  342,845
373,138;  333,275;  349,986;  354,465
373,215;  355,275;  345,155;  346,585
373,291;  352,275;  347,556;  353,415
373,368;  356,275;  353,516;  357,375
373,445;  335,275;  348,285;  348,395
373,521;  340,275;  349,216;  353,935
373,598;  347,275;  341,766;  343,845
373,675;  298,275;  332,646;  334,115
373,751;  368,275;  345,375;  354,195
373,828;  333,275;  341,076;  346,375
373,904;  390,275;  387,225;  391,935
373,981;  323,275;  332,516;  333,585
374,057;  345,275;  353,306;  355,945
374,134;  318,275;  331,706;  334,435
374,211;  382,275;  348,826;  351,835
374,287;  355,275;  338,565;  339,035
374,364;  361,275;  362,426;  365,335
374,440;  328,275;  319,035;  321,205
374,517;  375,275;  361,625;  366,995
374,593;  325,275;  326,896;  326,865
374,670;  341,275;  340,095;  342,905
374,746;  362,275;  346,915;  349,135
374,823;  354,275;  369,255;  368,775
374,899;  389,275;  366,836;  366,475
374,975;  320,275;  336,035;  341,495
375,052;  306,275;  319,776;  326,175
375,128;  291,275;  325,956;  331,675
375,205;  335,275;  353,665;  355,605
375,281;  328,275;  337,296;  336,395
375,357;  370,275;  361,026;  364,245
375,434;  347,275;  331,986;  338,045
375,510;  321,275;  347,755;  353,175
375,586;  351,275;  347,486;  349,845
375,663;  296,275;  321,926;  323,515
375,739;  351,275;  355,716;  358,675
375,815;  335,275;  346,366;  346,765
375,892;  334,275;  344,516;  348,555
375,968;  321,275;  331,605;  336,855
376,044;  308,275;  335,866;  339,405
376,120;  325,275;  332,535;  339,615
376,197;  355,275;  348,466;  352,185
376,273;  331,275;  340,516;  341,095
376,349;  370,275;  378,366;  379,125
376,425;  370,275;  362,935;  364,425
376,501;  356,275;  344,225;  347,555
376,578;  379,275;  362,885;  363,255
376,654;  385,275;  383,866;  382,945
376,730;  355,275;  360,266;  364,005
376,806;  377,275;  375,185;  376,845
376,882;  388,275;  377,176;  378,355
376,958;  377,275;  376,706;  373,325
377,034;  346,275;  319,695;  317,895
377,111;  359,275;  368,826;  369,285
377,187;  382,275;  390,845;  391,825
377,263;  394,275;  383,885;  384,725
377,339;  288,275;  341,445;  346,375
377,415;  349,275;  366,366;  365,685
377,491;  323,275;  342,885;  347,505
377,567;  369,275;  359,755;  360,685
377,643;  397,275;  380,076;  378,785
377,719;  340,275;  363,706;  367,845
377,795;  348,275;  345,725;  349,165
377,871;  377,275;  367,866;  370,355
377,947;  344,275;  348,236;  351,215
378,023;  348,275;  345,855;  349,075
378,099;  350,275;  349,035;  350,465
378,174;  364,275;  374,176;  374,825
378,250;  334,275;  363,105;  366,955
378,326;  356,275;  366,255;  370,045
378,402;  376,275;  357,685;  360,315
378,478;  365,275;  361,605;  365,295
378,554;  378,275;  370,396;  375,075
378,630;  369,275;  365,225;  365,285
378,706;  396,275;  358,076;  357,335
378,781;  388,275;  390,875;  394,875
378,857;  364,275;  363,185;  366,505
378,933;  347,275;  360,315;  365,855
379,009;  360,275;  351,426;  351,035
379,085;  388,275;  393,826;  391,725
379,160;  358,275;  377,246;  378,485
379,236;  338,275;  374,195;  376,655
379,312;  331,275;  359,915;  361,725
379,387;  328,275;  354,486;  355,105
379,463;  370,275;  359,836;  363,685
379,539;  399,275;  370,475;  373,395
379,615;  351,275;  359,056;  358,495
379,690;  375,275;  395,035;  398,755
379,766;  372,275;  373,276;  379,335
379,842;  371,275;  391,105;  391,375
379,917;  357,275;  380,935;  388,225
379,993;  361,275;  368,366;  373,385
380,068;  367,275;  359,236;  361,755
380,144;  392,275;  381,086;  383,405
380,220;  369,275;  382,086;  386,535
380,295;  350,275;  353,005;  355,035
380,371;  366,275;  359,935;  361,545
380,446;  377,275;  377,165;  381,125
380,522;  334,275;  348,766;  349,425
380,597;  356,275;  360,486;  359,965
380,673;  403,275;  390,456;  394,425
380,748;  363,275;  358,046;  358,445
380,824;  350,275;  367,676;  369,935
380,899;  389,275;  386,216;  388,425
380,975;  376,275;  365,475;  366,905
381,050;  345,275;  352,806;  352,825
381,126;  379,275;  370,526;  373,695
381,201;  371,275;  398,806;  402,495
381,277;  340,275;  373,435;  374,795
381,352;  382,275;  388,105;  390,855
381,427;  352,275;  372,586;  376,025
381,503;  379,275;  378,896;  379,385
381,578;  353,275;  360,605;  365,515
381,653;  354,275;  368,776;  372,375
381,729;  335,275;  361,535;  360,945
381,804;  366,275;  367,475;  368,805
381,879;  379,275;  383,306;  386,055
381,955;  350,275;  354,396;  356,545
382,030;  329,275;  356,556;  357,225
382,105;  375,275;  375,586;  372,555
382,181;  387,275;  367,466;  371,255
382,256;  377,275;  378,116;  374,765
382,331;  361,275;  367,216;  371,745
382,406;  358,275;  353,266;  357,745
382,482;  377,275;  361,315;  357,655
382,557;  369,275;  363,526;  366,745
382,632;  368,275;  370,595;  371,585
382,707;  328,275;  361,135;  365,615
382,782;  361,275;  361,516;  366,275
382,857;  388,275;  358,996;  361,035
382,933;  354,275;  351,776;  352,995
383,008;  338,275;  344,065;  345,165
383,083;  384,275;  376,866;  379,215
383,158;  368,275;  378,866;  381,615
383,233;  372,275;  362,385;  363,105
383,308;  385,275;  359,875;  362,675
383,383;  339,275;  389,445;  391,785
383,458;  332,275;  361,135;  360,475
383,533;  362,275;  342,456;  344,625
383,608;  390,275;  387,885;  390,385
383,683;  388,275;  385,046;  389,585
383,758;  379,275;  380,285;  380,925
383,833;  366,275;  370,296;  371,015
383,908;  363,275;  343,206;  342,165
383,983;  361,275;  346,296;  350,755
384,058;  366,275;  355,246;  357,655
384,133;  335,275;  368,185;  368,575
384,208;  379,275;  376,796;  379,565
384,283;  333,275;  348,736;  351,825
384,358;  378,275;  381,845;  387,485
384,433;  363,275;  357,496;  357,355
384,508;  363,275;  368,966;  373,895
384,583;  369,275;  373,725;  375,265
384,658;  356,275;  367,915;  371,275
384,732;  315,275;  339,456;  339,705
384,807;  349,275;  366,935;  369,005
384,882;  381,275;  371,246;  373,145
384,957;  358,275;  368,095;  371,985
385,032;  384,275;  375,426;  376,555
385,106;  355,275;  370,216;  371,515
385,181;  352,275;  351,385;  357,155
385,256;  378,275;  363,565;  366,745
385,331;  351,275;  371,935;  373,255
385,405;  398,275;  380,975;  381,445
385,480;  371,275;  365,695;  366,715
385,555;  348,275;  399,306;  400,405
385,630;  385,275;  390,956;  395,935
385,704;  375,275;  374,056;  377,105
385,779;  383,275;  364,405;  364,855
385,854;  361,275;  368,746;  369,975
385,928;  356,275;  363,016;  365,315
386,003;  382,275;  402,586;  405,115
386,078;  371,275;  372,466;  374,995
386,152;  409,275;  401,456;  401,815
386,227;  364,275;  357,646;  361,225
386,301;  352,275;  378,725;  380,385
386,376;  367,275;  348,695;  355,015
386,450;  355,275;  378,616;  381,145
386,525;  358,275;  373,556;  377,655
386,600;  378,275;  385,746;  385,925
386,674;  354,275;  364,076;  367,315
386,749;  381,275;  375,095;  381,315
386,823;  369,275;  377,435;  382,095
386,898;  397,275;  379,766;  380,535
386,972;  395,275;  380,966;  385,985
387,047;  353,275;  369,776;  374,355
387,121;  382,275;  379,695;  380,335
387,195;  376,275;  357,875;  359,895
387,270;  380,275;  385,625;  385,415
387,344;  399,275;  404,405;  407,055
387,419;  376,275;  385,665;  393,195
387,493;  363,275;  377,776;  379,825
387,567;  364,275;  355,005;  358,475
387,642;  394,275;  403,586;  405,945
387,716;  369,275;  369,565;  372,245
387,790;  370,275;  367,706;  371,225
387,865;  369,275;  372,806;  373,715
387,939;  420,275;  403,005;  404,415
388,013;  401,275;  384,806;  386,145
388,088;  388,275;  368,655;  370,085
388,162;  369,275;  370,135;  371,835
388,236;  346,275;  372,456;  375,275
388,310;  366,275;  361,966;  364,475
388,385;  416,275;  397,185;  400,845
388,459;  384,275;  379,996;  380,235
388,533;  352,275;  363,676;  362,565
388,607;  341,275;  366,776;  365,955
388,682;  399,275;  374,806;  375,745
388,756;  360,275;  355,035;  360,825
388,830;  384,275;  390,255;  394,075
388,904;  370,275;  378,276;  385,365
388,978;  374,275;  369,535;  370,165
389,052;  363,275;  375,396;  377,225
389,126;  368,275;  370,435;  376,195
389,200;  404,275;  372,665;  377,205
389,275;  349,275;  369,266;  367,695
389,349;  365,275;  374,695;  373,065
389,423;  349,275;  369,565;  369,375
389,497;  384,275;  380,966;  383,775
389,571;  358,275;  368,665;  370,175
389,645;  372,275;  376,806;  379,805
389,719;  422,275;  369,396;  372,955
389,793;  366,275;  346,576;  348,725
389,867;  424,275;  398,035;  402,955
389,941;  373,275;  375,375;  377,215
390,015;  350,275;  361,135;  364,515
390,089;  369,275;  360,426;  362,085
390,163;  341,275;  372,456;  375,935
390,237;  350,275;  375,435;  379,295
390,310;  372,275;  379,276;  382,155
390,384;  411,275;  376,546;  383,625
390,458;  418,275;  400,826;  403,825
390,532;  398,275;  383,496;  386,725
390,606;  341,275;  365,945;  369,265
390,680;  384,275;  366,466;  368,115
390,754;  377,275;  366,385;  368,915
390,827;  401,275;  388,276;  392,645
390,901;  417,275;  391,855;  396,215
390,975;  346,275;  368,905;  370,295
391,049;  362,275;  366,366;  364,315
391,123;  350,275;  362,685;  363,545
391,196;  368,275;  367,635;  367,855
391,270;  390,275;  378,426;  377,835
391,344;  365,275;  360,056;  359,585
391,418;  379,275;  372,975;  372,155
391,491;  387,275;  362,655;  363,995
391,565;  360,275;  362,065;  366,105
391,639;  371,275;  394,345;  397,875
391,712;  378,275;  385,815;  384,375
391,786;  379,275;  382,646;  386,785
391,860;  379,275;  369,385;  370,925
391,933;  374,275;  369,935;  371,115
392,007;  373,275;  371,355;  380,875
392,081;  379,275;  396,456;  399,955
392,154;  377,275;  377,845;  383,895
392,228;  389,275;  391,366;  394,685
392,301;  373,275;  376,266;  381,275
392,375;  396,275;  386,076;  389,995
392,448;  359,275;  379,516;  384,445
392,522;  354,275;  376,236;  379,965
392,595;  376,275;  370,105;  374,245
392,669;  368,275;  376,116;  379,675
392,742;  404,275;  390,975;  396,915
392,816;  393,275;  397,296;  400,205
392,889;  387,275;  392,746;  396,605
392,963;  396,275;  409,095;  409,745
393,036;  380,275;  385,345;  386,785
393,110;  390,275;  391,155;  393,885
393,183;  418,275;  400,836;  405,685
393,257;  427,275;  415,456;  417,745
393,330;  366,275;  365,845;  369,745
393,403;  416,275;  390,486;  395,585
393,477;  347,275;  355,845;  358,875
393,550;  387,275;  390,306;  395,545
393,623;  353,275;  388,396;  388,295
393,697;  395,275;  406,056;  406,835
393,770;  372,275;  376,556;  379,065
393,843;  407,275;  402,996;  406,915
393,917;  409,275;  394,216;  398,485
393,990;  410,275;  409,996;  410,125
394,063;  365,275;  386,855;  392,225
394,136;  396,275;  388,635;  391,675
394,210;  375,275;  393,336;  395,655
394,283;  380,275;  402,785;  407,175
394,356;  389,275;  399,165;  399,175
394,429;  414,275;  396,935;  398,825
394,502;  420,275;  382,016;  383,895
394,576;  395,275;  414,125;  414,715
394,649;  382,275;  378,776;  377,865
394,722;  390,275;  400,896;  403,785
394,795;  409,275;  408,306;  413,185
394,868;  396,275;  384,135;  385,985
394,941;  375,275;  376,435;  375,265
395,014;  421,275;  417,056;  420,205
395,088;  411,275;  398,956;  399,175
395,161;  414,275;  395,466;  398,685
395,234;  410,275;  409,236;  410,735
395,307;  435,275;  402,236;  405,525
395,380;  392,275;  384,736;  385,325
395,453;  453,275;  436,845;  437,285
395,526;  405,275;  408,385;  412,495
395,599;  441,275;  426,926;  430,645
395,672;  389,275;  394,586;  394,895
395,745;  426,275;  417,125;  421,075
395,818;  398,275;  376,306;  378,615
395,891;  406,275;  385,635;  387,695
395,964;  374,275;  415,896;  414,885
396,036;  370,275;  387,486;  384,175
396,109;  391,275;  392,076;  395,785
396,182;  409,275;  396,766;  399,545
396,255;  391,275;  399,225;  398,845
396,328;  417,275;  410,065;  411,075
396,401;  369,275;  370,746;  371,295
396,474;  401,275;  381,086;  381,505
396,547;  406,275;  397,046;  400,645
396,619;  371,275;  390,755;  390,525
396,692;  416,275;  404,866;  411,355
396,765;  378,275;  370,616;  372,985
396,838;  388,275;  388,225;  388,295
396,911;  355,275;  371,266;  373,155
396,983;  389,275;  392,496;  392,385
397,056;  364,275;  372,355;  374,095
397,129;  353,275;  387,796;  389,615
397,201;  390,275;  391,556;  389,605
397,274;  403,275;  385,366;  389,335
397,347;  332,275;  363,345;  363,665
397,420;  380,275;  384,605;  387,195
397,492;  392,275;  388,296;  388,685
397,565;  387,275;  375,915;  379,595
397,637;  387,275;  369,366;  372,085
397,710;  350,275;  351,586;  350,295
397,783;  416,275;  412,855;  414,805
397,855;  346,275;  345,345;  347,055
397,928;  373,275;  368,336;  371,095
398,000;  391,275;  395,866;  396,635
398,073;  401,275;  386,546;  384,745
398,146;  376,275;  376,706;  377,295
398,218;  413,275;  390,255;  393,135
398,291;  382,275;  385,806;  387,915
398,363;  371,275;  381,755;  384,505
398,436;  372,275;  369,855;  374,675
398,508;  368,275;  383,266;  385,345
398,581;  388,275;  378,206;  380,565
398,653;  375,275;  374,255;  373,825
398,726;  369,275;  378,535;  383,385
398,798;  388,275;  383,306;  387,885
398,870;  384,275;  391,116;  396,905
398,943;  390,275;  366,236;  369,775
399,015;  361,275;  365,676;  368,815
399,088;  400,275;  389,655;  388,435
399,160;  376,275;  368,076;  368,815
399,232;  348,275;  350,405;  352,095
399,305;  393,275;  368,435;  372,935
399,377;  392,275;  377,905;  377,535
399,449;  358,275;  386,246;  388,735
399,522;  420,275;  421,875;  424,965
399,594;  344,275;  364,576;  365,315
399,666;  384,275;  382,625;  385,235
399,738;  382,275;  373,336;  375,225
399,811;  341,275;  376,736;  377,025
399,883;  376,275;  386,105;  388,295
399,955;  380,275;  389,855;  389,195
400,027;  350,275;  345,945;  349,545
400,100;  397,275;  407,366;  409,275
400,172;  356,275;  348,296;  349,645
400,244;  340,275;  378,225;  381,195
400,316;  414,275;  393,016;  393,505
400,388;  399,275;  389,385;  393,005
400,460;  372,275;  359,306;  364,605
400,532;  332,275;  350,826;  351,835
400,605;  378,275;  377,736;  384,975
400,677;  407,275;  402,285;  404,675
400,749;  405,275;  395,685;  398,125
400,821;  406,275;  385,956;  388,105
400,893;  378,275;  379,445;  382,305
400,965;  395,275;  386,755;  392,785
401,037;  373,275;  387,565;  392,525
401,109;  354,275;  370,725;  373,835
401,181;  415,275;  380,716;  385,485

