pru
Integration time [ms]:   0,150
Averaging Nr. [scans]: 10
Smoothing Nr. [pixels]: 0
Data measured with spectrometer [name]: 7416147SP
Wave   ;Sample   ;Dark     ;Reference
[nm]   ;[counts] ;[counts] ;[counts] 

230,218;  290,745;  290,315;  293,845
230,311;  317,345;  319,885;  318,565
230,404;  325,145;  309,855;  312,875
230,497;  316,445;  317,385;  315,715
230,591;  337,945;  333,426;  335,355
230,684;  328,345;  326,486;  329,355
230,777;  322,745;  311,736;  314,765
230,870;  325,745;  313,326;  316,955
230,964;  316,245;  310,885;  314,745
231,057;  342,845;  342,496;  343,475
231,150;  335,545;  331,695;  332,715
231,243;  326,645;  330,635;  332,775
231,336;  331,045;  331,375;  331,335
231,430;  315,145;  316,496;  317,715
231,523;  321,345;  324,516;  326,785
231,616;  310,445;  305,445;  309,685
231,709;  343,045;  328,065;  330,025
231,802;  314,245;  300,945;  301,885
231,895;  319,045;  299,836;  300,315
231,988;  321,945;  315,655;  318,535
232,082;  310,945;  298,155;  302,425
232,175;  305,845;  302,155;  306,175
232,268;  309,745;  301,266;  305,345
232,361;  317,345;  304,806;  307,515
232,454;  327,345;  322,396;  323,025
232,547;  332,045;  318,716;  322,655
232,640;  305,545;  296,766;  294,035
232,733;  336,345;  314,116;  323,045
232,826;  312,445;  288,915;  295,035
232,919;  325,545;  313,826;  312,665
233,012;  302,445;  293,646;  292,775
233,105;  307,445;  294,766;  298,815
233,199;  317,745;  299,875;  304,045
233,292;  302,545;  293,475;  296,235
233,385;  281,945;  263,426;  262,225
233,478;  308,145;  293,885;  295,685
233,571;  339,845;  324,586;  327,675
233,664;  306,145;  305,996;  308,435
233,757;  297,045;  280,796;  281,395
233,850;  293,445;  282,255;  285,825
233,943;  305,145;  290,896;  292,195
234,035;  315,245;  300,576;  302,355
234,128;  289,645;  281,836;  283,945
234,221;  313,745;  297,665;  298,245
234,314;  324,945;  304,915;  311,975
234,407;  322,745;  302,935;  309,075
234,500;  298,045;  277,625;  281,875
234,593;  301,845;  287,095;  285,735
234,686;  309,545;  293,746;  293,765
234,779;  304,945;  291,266;  293,165
234,872;  294,545;  281,806;  281,565
234,965;  304,945;  292,806;  290,795
235,058;  285,645;  274,155;  276,215
235,150;  311,145;  285,776;  290,805
235,243;  297,745;  282,736;  284,425
235,336;  317,845;  300,695;  304,545
235,429;  285,445;  273,646;  272,515
235,522;  338,145;  330,996;  335,445
235,615;  279,245;  262,276;  265,145
235,707;  302,545;  282,415;  282,335
235,800;  295,845;  289,815;  290,515
235,893;  300,745;  289,956;  292,955
235,986;  317,945;  298,266;  299,325
236,079;  298,745;  286,586;  291,125
236,171;  289,945;  270,725;  271,865
236,264;  333,545;  312,635;  313,275
236,357;  301,445;  290,986;  293,865
236,450;  332,045;  315,225;  317,215
236,542;  289,645;  267,065;  272,575
236,635;  331,845;  313,546;  316,385
236,728;  293,345;  285,516;  288,115
236,821;  300,245;  280,165;  283,715
236,913;  277,245;  277,896;  276,315
237,006;  278,545;  271,605;  275,435
237,099;  294,445;  283,896;  285,575
237,191;  320,345;  298,796;  300,225
237,284;  283,545;  267,896;  272,995
237,377;  296,345;  294,725;  297,495
237,470;  296,245;  285,415;  287,875
237,562;  292,145;  276,866;  275,785
237,655;  337,745;  320,945;  324,565
237,747;  313,245;  292,695;  295,845
237,840;  331,045;  313,086;  314,435
237,933;  319,845;  300,445;  301,555
238,025;  316,345;  301,415;  301,595
238,118;  293,845;  282,456;  287,755
238,211;  297,545;  268,155;  272,375
238,303;  292,945;  272,296;  273,415
238,396;  281,645;  268,065;  271,945
238,488;  307,045;  292,625;  291,075
238,581;  298,445;  287,855;  289,445
238,673;  300,945;  285,766;  286,865
238,766;  287,445;  282,635;  283,185
238,859;  290,945;  273,586;  276,105
238,951;  291,345;  281,095;  282,835
239,044;  293,545;  276,496;  279,525
239,136;  285,945;  269,035;  271,705
239,229;  304,045;  280,665;  283,435
239,321;  285,945;  271,255;  276,105
239,414;  308,045;  289,875;  292,345
239,506;  291,445;  284,625;  290,655
239,599;  342,945;  316,315;  315,935
239,691;  313,545;  287,945;  287,755
239,784;  323,545;  301,926;  304,175
239,876;  304,645;  295,005;  294,715
239,969;  309,245;  284,426;  288,635
240,061;  292,845;  269,505;  272,655
240,153;  282,145;  276,776;  278,405
240,246;  299,445;  287,635;  287,925
240,338;  331,945;  315,285;  314,405
240,431;  289,545;  268,896;  270,455
240,523;  288,645;  269,315;  270,665
240,615;  316,245;  299,086;  301,495
240,708;  327,845;  309,945;  312,145
240,800;  305,545;  286,956;  289,175
240,893;  287,445;  272,216;  274,965
240,985;  293,945;  286,116;  289,995
241,077;  291,445;  269,866;  271,905
241,170;  315,745;  300,355;  300,805
241,262;  295,245;  293,695;  290,825
241,354;  264,545;  252,305;  253,985
241,447;  294,845;  281,326;  283,905
241,539;  278,945;  266,746;  270,745
241,631;  337,345;  314,366;  317,275
241,724;  272,845;  259,135;  260,655
241,816;  304,045;  279,385;  281,545
241,908;  297,245;  275,056;  280,445
242,000;  284,245;  277,625;  279,505
242,093;  306,645;  277,725;  280,745
242,185;  292,645;  277,736;  277,535
242,277;  290,145;  274,695;  277,115
242,369;  295,045;  282,146;  286,335
242,462;  285,745;  274,405;  274,215
242,554;  293,945;  277,146;  281,105
242,646;  293,645;  283,146;  286,575
242,738;  313,245;  303,255;  307,195
242,830;  272,245;  259,026;  260,415
242,923;  314,345;  297,035;  299,015
243,015;  295,445;  268,655;  266,675
243,107;  285,445;  267,676;  271,255
243,199;  309,845;  276,345;  278,365
243,291;  292,045;  272,125;  276,215
243,383;  261,245;  254,826;  256,465
243,476;  280,645;  269,435;  268,005
243,568;  296,445;  280,915;  284,885
243,660;  294,345;  273,385;  279,575
243,752;  288,745;  279,796;  287,275
243,844;  307,645;  300,766;  302,705
243,936;  308,245;  291,956;  293,555
244,028;  319,745;  304,796;  307,475
244,120;  268,345;  254,346;  255,525
244,212;  308,945;  293,826;  293,755
244,305;  282,445;  268,496;  267,935
244,397;  302,945;  289,165;  291,675
244,489;  310,245;  304,276;  307,925
244,581;  312,545;  299,255;  300,795
244,673;  303,345;  281,806;  283,225
244,765;  303,845;  286,035;  290,565
244,857;  306,445;  284,986;  287,335
244,949;  302,445;  283,956;  284,945
245,041;  264,545;  250,865;  255,005
245,133;  310,345;  293,695;  296,625
245,225;  293,645;  277,915;  280,695
245,317;  303,345;  289,456;  289,025
245,409;  273,145;  263,755;  269,375
245,501;  305,945;  288,496;  293,045
245,593;  300,545;  286,255;  290,055
245,685;  297,645;  285,405;  288,735
245,776;  296,645;  285,945;  287,235
245,868;  280,945;  271,276;  272,565
245,960;  271,645;  265,875;  263,405
246,052;  318,145;  310,766;  310,445
246,144;  305,445;  294,165;  294,205
246,236;  289,845;  283,576;  283,565
246,328;  299,245;  291,345;  293,965
246,420;  295,345;  279,746;  280,855
246,512;  320,245;  308,236;  310,455
246,604;  299,845;  282,526;  286,825
246,695;  283,745;  273,345;  272,135
246,787;  313,145;  293,526;  301,145
246,879;  300,445;  292,716;  297,145
246,971;  314,045;  299,276;  300,965
247,063;  289,045;  273,255;  278,605
247,155;  312,845;  294,516;  297,195
247,246;  304,745;  283,266;  283,715
247,338;  307,945;  288,116;  294,265
247,430;  311,745;  299,945;  303,475
247,522;  317,245;  297,546;  300,555
247,613;  310,145;  296,586;  299,675
247,705;  310,845;  286,896;  288,445
247,797;  324,045;  305,776;  307,475
247,889;  321,945;  294,706;  295,475
247,980;  327,145;  285,676;  291,995
248,072;  329,045;  282,845;  285,895
248,164;  352,045;  293,216;  298,385
248,256;  310,745;  271,366;  274,105
248,347;  325,045;  309,785;  311,065
248,439;  295,845;  283,165;  282,675
248,531;  311,145;  303,885;  304,835
248,622;  323,745;  307,206;  308,325
248,714;  295,145;  276,945;  278,365
248,806;  316,445;  293,655;  298,015
248,897;  303,545;  291,535;  292,985
248,989;  278,245;  263,956;  263,855
249,081;  300,045;  283,355;  284,905
249,172;  304,745;  289,926;  295,135
249,264;  284,645;  272,076;  273,435
249,356;  289,045;  269,326;  273,745
249,447;  311,245;  282,176;  284,525
249,539;  302,445;  283,086;  284,645
249,630;  309,545;  289,875;  288,495
249,722;  329,645;  313,276;  315,395
249,813;  301,145;  280,496;  284,125
249,905;  311,345;  289,426;  293,665
249,997;  287,645;  281,445;  280,615
250,088;  305,545;  282,255;  288,985
250,180;  308,445;  283,695;  284,575
250,271;  297,545;  281,195;  280,335
250,363;  330,145;  319,105;  320,755
250,454;  299,545;  273,035;  275,615
250,546;  307,945;  285,926;  289,415
250,637;  284,845;  264,445;  261,845
250,729;  287,445;  266,505;  269,555
250,820;  318,045;  289,915;  292,965
250,912;  291,345;  262,355;  267,085
251,003;  306,645;  278,396;  280,475
251,095;  294,145;  282,086;  284,555
251,186;  295,145;  271,415;  274,775
251,277;  304,145;  271,986;  275,265
251,369;  292,145;  275,975;  275,105
251,460;  300,845;  271,456;  273,815
251,552;  317,945;  278,475;  279,655
251,643;  290,445;  268,796;  267,375
251,735;  304,545;  265,246;  267,375
251,826;  292,045;  258,016;  263,245
251,917;  317,145;  278,035;  279,115
252,009;  323,545;  273,396;  275,605
252,100;  330,145;  281,426;  283,345
252,191;  355,245;  289,996;  292,015
252,283;  332,845;  265,095;  267,705
252,374;  367,145;  278,296;  278,375
252,465;  394,445;  295,405;  298,605
252,557;  394,545;  283,576;  286,365
252,648;  376,045;  265,146;  268,635
252,739;  422,445;  280,516;  282,125
252,831;  420,445;  270,836;  280,355
252,922;  453,845;  282,296;  280,045
253,013;  500,345;  273,956;  284,285
253,104;  554,445;  270,076;  270,335
253,196;  661,145;  271,366;  271,175
253,287;  806,845;  281,836;  277,135
253,378; 1162,745;  276,276;  277,975
253,469; 3708,445;  272,385;  276,445
253,561;20452,945;  273,496;  278,855
253,652;40222,246;  282,266;  280,015
253,743; 6602,445;  276,216;  280,985
253,834;  612,245;  259,146;  265,875
253,926;  495,245;  262,605;  267,485
254,017;  471,745;  284,236;  290,235
254,108;  443,245;  291,836;  290,565
254,199;  425,045;  285,326;  291,185
254,290;  425,845;  312,725;  313,865
254,381;  413,945;  287,076;  291,155
254,472;  414,145;  291,935;  300,495
254,564;  414,045;  312,766;  307,565
254,655;  399,245;  304,755;  308,105
254,746;  345,545;  264,896;  264,025
254,837;  387,645;  293,105;  298,435
254,928;  353,745;  266,836;  271,975
255,019;  356,845;  283,505;  286,805
255,110;  373,945;  300,165;  301,665
255,201;  360,445;  281,155;  287,655
255,292;  376,045;  312,706;  316,275
255,383;  342,645;  275,785;  275,725
255,474;  341,045;  273,306;  273,095
255,566;  351,845;  283,926;  286,645
255,657;  353,445;  298,556;  302,445
255,748;  314,145;  271,415;  278,125
255,839;  324,045;  280,695;  282,485
255,930;  333,745;  287,866;  289,735
256,021;  331,445;  298,845;  298,115
256,112;  319,745;  278,456;  278,735
256,203;  348,345;  311,866;  313,365
256,294;  324,245;  293,496;  299,575
256,384;  311,645;  270,565;  275,715
256,475;  309,645;  290,996;  294,595
256,566;  305,345;  281,246;  287,825
256,657;  300,645;  278,945;  278,915
256,748;  303,145;  281,285;  284,675
256,839;  287,345;  274,426;  273,555
256,930;  295,245;  279,165;  283,055
257,021;  322,845;  304,155;  306,465
257,112;  323,045;  304,926;  309,235
257,203;  275,645;  258,445;  259,825
257,294;  274,745;  254,465;  262,175
257,385;  304,845;  288,526;  294,205
257,475;  295,145;  279,135;  278,545
257,566;  307,545;  287,586;  292,255
257,657;  288,745;  269,595;  270,025
257,748;  296,045;  275,935;  276,095
257,839;  298,345;  287,915;  286,025
257,930;  312,245;  285,736;  290,395
258,020;  291,645;  269,716;  271,535
258,111;  277,245;  262,225;  263,255
258,202;  302,745;  288,326;  289,935
258,293;  296,945;  284,655;  285,305
258,384;  309,845;  305,595;  307,665
258,474;  297,645;  288,676;  291,995
258,565;  280,045;  271,635;  273,435
258,656;  307,145;  292,966;  295,145
258,747;  280,845;  271,475;  275,425
258,837;  288,145;  274,246;  273,695
258,928;  293,745;  275,785;  278,605
259,019;  282,445;  268,415;  270,595
259,109;  274,245;  269,685;  269,425
259,200;  301,545;  286,105;  289,815
259,291;  280,245;  269,975;  271,655
259,381;  301,745;  293,026;  295,635
259,472;  301,045;  295,796;  296,545
259,563;  312,145;  303,065;  305,845
259,653;  285,645;  278,296;  281,385
259,744;  284,845;  268,826;  267,735
259,835;  308,745;  300,975;  302,815
259,925;  276,245;  271,505;  277,075
260,016;  299,145;  286,746;  287,585
260,107;  266,045;  258,035;  264,715
260,197;  292,645;  283,975;  286,325
260,288;  288,645;  274,565;  279,155
260,378;  275,745;  267,195;  271,275
260,469;  291,845;  285,915;  288,765
260,560;  267,245;  266,146;  269,495
260,650;  273,645;  271,736;  275,665
260,741;  282,945;  276,366;  279,035
260,831;  282,645;  272,855;  275,905
260,922;  271,545;  266,206;  269,545
261,012;  286,145;  277,665;  278,255
261,103;  305,445;  301,785;  302,875
261,193;  309,745;  302,086;  303,915
261,284;  278,145;  271,806;  273,005
261,374;  300,445;  296,385;  303,855
261,465;  302,645;  287,755;  289,435
261,555;  291,045;  282,255;  280,715
261,646;  300,045;  292,475;  294,375
261,736;  293,345;  287,435;  290,535
261,827;  283,145;  283,716;  284,935
261,917;  316,545;  311,736;  311,595
262,007;  294,645;  283,986;  288,075
262,098;  293,045;  289,445;  287,725
262,188;  336,345;  326,655;  333,475
262,279;  299,845;  300,185;  299,795
262,369;  300,045;  286,285;  289,225
262,459;  301,945;  288,246;  290,365
262,550;  312,945;  303,266;  301,565
262,640;  282,045;  273,005;  276,555
262,731;  304,045;  300,935;  299,335
262,821;  319,745;  310,535;  312,255
262,911;  310,445;  297,875;  298,285
263,002;  298,945;  289,625;  290,825
263,092;  311,945;  303,956;  306,295
263,182;  293,545;  284,806;  285,755
263,273;  285,345;  285,426;  289,395
263,363;  298,545;  300,746;  299,385
263,453;  273,845;  267,375;  268,605
263,543;  300,245;  289,815;  289,615
263,634;  268,145;  266,516;  266,365
263,724;  294,645;  292,586;  293,065
263,814;  309,645;  308,706;  308,885
263,904;  287,845;  281,966;  285,905
263,995;  334,845;  322,276;  322,325
264,085;  301,045;  295,855;  294,575
264,175;  299,145;  296,706;  296,385
264,265;  331,945;  321,105;  321,865
264,356;  271,545;  270,466;  274,385
264,446;  304,745;  308,996;  307,575
264,536;  293,245;  294,026;  297,515
264,626;  326,545;  318,486;  320,175
264,716;  302,845;  298,435;  303,275
264,806;  308,945;  308,776;  310,415
264,897;  269,345;  258,135;  258,615
264,987;  314,245;  303,535;  304,475
265,077;  308,345;  287,046;  292,545
265,167;  369,645;  310,216;  311,575
265,257;  339,345;  290,445;  290,535
265,347;  334,145;  294,336;  295,795
265,437;  329,245;  296,176;  300,635
265,527;  316,645;  293,155;  294,765
265,617;  285,545;  279,875;  285,145
265,708;  326,745;  314,216;  314,825
265,798;  306,345;  305,415;  307,055
265,888;  302,645;  300,716;  305,545
265,978;  305,345;  294,496;  295,825
266,068;  317,545;  310,155;  315,855
266,158;  303,645;  294,005;  297,205
266,248;  284,845;  274,016;  276,865
266,338;  316,445;  313,035;  314,815
266,428;  305,745;  300,635;  302,655
266,518;  317,445;  311,405;  315,615
266,608;  291,345;  299,725;  294,215
266,698;  272,245;  273,586;  276,245
266,788;  283,645;  274,456;  277,745
266,878;  335,345;  325,776;  330,865
266,968;  303,545;  306,725;  309,425
267,058;  313,345;  297,375;  302,895
267,147;  306,245;  301,845;  302,905
267,237;  294,445;  291,815;  295,765
267,327;  295,145;  286,755;  287,895
267,417;  303,145;  301,225;  303,385
267,507;  297,645;  292,176;  294,215
267,597;  279,745;  282,026;  283,655
267,687;  288,845;  285,165;  287,755
267,777;  294,045;  283,986;  284,615
267,867;  311,645;  312,125;  312,585
267,956;  310,345;  302,466;  304,005
268,046;  316,945;  305,466;  310,865
268,136;  300,545;  296,875;  298,905
268,226;  291,045;  274,885;  274,965
268,316;  285,645;  280,766;  280,845
268,406;  285,845;  289,516;  287,595
268,495;  296,745;  284,415;  287,935
268,585;  314,245;  306,716;  309,605
268,675;  291,845;  284,336;  285,535
268,765;  303,945;  296,355;  300,115
268,854;  286,345;  285,935;  286,715
268,944;  296,645;  291,646;  293,805
269,034;  297,845;  283,986;  289,715
269,124;  299,245;  287,216;  290,705
269,213;  291,845;  286,336;  285,525
269,303;  289,145;  290,466;  288,585
269,393;  304,845;  299,845;  298,345
269,483;  305,545;  300,966;  302,735
269,572;  288,945;  282,875;  284,665
269,662;  291,445;  276,105;  283,315
269,752;  306,345;  312,736;  315,705
269,841;  274,245;  266,046;  269,455
269,931;  291,845;  281,586;  283,075
270,021;  298,645;  300,766;  304,675
270,110;  292,245;  285,695;  288,925
270,200;  297,445;  291,665;  299,445
270,289;  278,645;  280,785;  281,105
270,379;  305,645;  301,466;  302,775
270,469;  288,445;  290,556;  289,955
270,558;  298,745;  303,655;  302,185
270,648;  285,345;  282,785;  284,885
270,737;  291,745;  288,526;  291,525
270,827;  311,845;  310,185;  313,455
270,916;  293,945;  286,935;  289,915
271,006;  302,645;  293,475;  292,885
271,096;  331,845;  317,005;  317,215
271,185;  288,745;  289,896;  289,145
271,275;  305,645;  300,706;  303,575
271,364;  292,145;  281,535;  285,725
271,454;  308,245;  308,255;  315,275
271,543;  305,145;  296,935;  297,745
271,633;  284,345;  293,926;  292,835
271,722;  303,345;  292,255;  296,455
271,812;  292,845;  286,296;  289,275
271,901;  306,145;  292,326;  293,765
271,990;  304,645;  291,836;  290,915
272,080;  301,945;  290,635;  294,915
272,169;  298,545;  301,905;  302,555
272,259;  296,945;  293,225;  292,695
272,348;  311,745;  305,796;  308,535
272,438;  299,345;  296,935;  293,635
272,527;  303,045;  303,996;  304,365
272,616;  308,245;  301,866;  305,295
272,706;  326,445;  320,935;  323,195
272,795;  324,245;  314,076;  315,755
272,884;  298,945;  297,076;  299,515
272,974;  311,845;  317,975;  319,965
273,063;  338,745;  338,206;  337,765
273,152;  311,745;  310,306;  307,735
273,242;  326,145;  320,276;  324,915
273,331;  321,845;  319,315;  322,835
273,420;  304,645;  301,105;  310,255
273,510;  312,645;  307,355;  308,155
273,599;  311,745;  303,255;  306,195
273,688;  309,245;  302,605;  301,885
273,778;  283,845;  285,065;  287,095
273,867;  319,745;  320,266;  317,015
273,956;  310,245;  303,725;  303,805
274,045;  279,045;  273,966;  275,965
274,135;  298,945;  303,905;  305,375
274,224;  291,845;  286,516;  290,045
274,313;  307,345;  305,586;  307,745
274,402;  286,745;  284,796;  287,085
274,491;  307,445;  310,975;  312,995
274,581;  307,645;  301,415;  302,765
274,670;  293,445;  293,146;  294,385
274,759;  293,745;  299,405;  300,435
274,848;  276,845;  276,655;  279,925
274,937;  291,145;  289,945;  287,635
275,026;  290,045;  285,616;  287,835
275,116;  318,345;  316,415;  315,805
275,205;  297,245;  266,926;  271,135
275,294;  332,845;  302,315;  304,335
275,383;  302,845;  299,905;  297,985
275,472;  295,445;  290,005;  290,825
275,561;  299,445;  290,505;  290,285
275,650;  304,545;  306,046;  306,435
275,739;  303,145;  294,776;  297,985
275,828;  285,145;  274,635;  277,965
275,917;  302,745;  312,065;  306,825
276,006;  296,545;  295,426;  296,835
276,095;  300,545;  294,526;  298,665
276,184;  308,545;  309,556;  307,945
276,273;  309,645;  303,105;  304,505
276,362;  274,145;  275,896;  278,535
276,451;  295,145;  291,306;  291,915
276,540;  298,645;  295,896;  296,105
276,629;  295,845;  292,576;  293,225
276,718;  263,245;  270,695;  274,545
276,807;  273,745;  271,625;  274,825
276,896;  286,645;  280,526;  284,495
276,985;  291,445;  283,616;  289,365
277,074;  309,045;  299,105;  300,525
277,163;  289,845;  294,746;  299,085
277,252;  276,945;  279,646;  276,465
277,341;  285,845;  281,236;  289,265
277,430;  279,145;  276,845;  279,355
277,519;  303,345;  298,956;  301,695
277,608;  267,645;  266,546;  267,775
277,696;  265,845;  266,975;  269,445
277,785;  284,245;  284,095;  283,485
277,874;  293,745;  299,605;  296,795
277,963;  288,745;  288,155;  289,995
278,052;  271,945;  264,776;  265,525
278,141;  299,945;  288,415;  290,745
278,229;  294,045;  290,146;  291,935
278,318;  275,145;  268,236;  271,495
278,407;  292,145;  285,576;  285,935
278,496;  287,345;  289,915;  291,965
278,585;  301,445;  300,486;  302,275
278,673;  264,445;  263,836;  266,715
278,762;  269,845;  266,176;  270,485
278,851;  298,945;  285,496;  286,035
278,940;  311,945;  303,685;  303,305
279,028;  301,645;  296,306;  299,585
279,117;  285,145;  282,725;  286,655
279,206;  272,445;  279,475;  284,105
279,294;  282,945;  284,396;  286,665
279,383;  286,445;  286,646;  287,335
279,472;  298,745;  298,095;  298,295
279,561;  285,945;  283,355;  284,975
279,649;  315,245;  308,535;  308,935
279,738;  253,045;  255,566;  255,215
279,827;  312,045;  306,785;  308,805
279,915;  279,645;  275,285;  276,335
280,004;  286,845;  286,565;  288,905
280,092;  306,345;  305,236;  306,635
280,181;  282,845;  280,516;  282,605
280,270;  291,145;  277,866;  281,595
280,358;  308,345;  291,366;  288,915
280,447;  267,645;  261,415;  264,455
280,535;  281,245;  276,016;  275,945
280,624;  283,045;  274,185;  276,805
280,713;  282,845;  277,146;  283,385
280,801;  296,245;  293,116;  293,805
280,890;  291,645;  289,716;  295,475
280,978;  275,345;  280,755;  281,945
281,067;  253,945;  250,676;  255,865
281,155;  282,445;  274,855;  275,705
281,244;  328,445;  313,595;  316,445
281,332;  299,645;  290,845;  293,825
281,421;  278,645;  271,605;  273,675
281,509;  285,345;  284,646;  282,415
281,598;  266,545;  262,435;  263,765
281,686;  286,845;  290,776;  288,945
281,775;  282,445;  285,516;  290,815
281,863;  272,745;  278,016;  279,225
281,951;  282,345;  267,665;  270,735
282,040;  304,845;  300,315;  301,115
282,128;  299,745;  288,375;  294,235
282,217;  265,645;  265,926;  266,075
282,305;  303,145;  294,796;  294,045
282,393;  288,745;  286,505;  284,595
282,482;  284,845;  279,535;  283,255
282,570;  284,645;  266,945;  270,215
282,658;  286,345;  276,116;  277,715
282,747;  279,345;  265,026;  267,905
282,835;  312,145;  306,076;  309,035
282,923;  275,845;  264,655;  267,805
283,012;  291,045;  291,366;  296,345
283,100;  270,145;  269,185;  274,675
283,188;  266,445;  261,125;  262,525
283,277;  287,645;  284,336;  284,745
283,365;  272,745;  271,676;  278,375
283,453;  279,445;  264,755;  270,455
283,542;  299,845;  290,896;  293,765
283,630;  267,345;  276,195;  278,595
283,718;  283,445;  271,195;  274,365
283,806;  249,545;  241,706;  247,485
283,894;  270,045;  274,336;  274,395
283,983;  289,745;  282,165;  282,605
284,071;  282,745;  285,285;  291,495
284,159;  307,645;  309,125;  314,805
284,247;  300,245;  287,466;  288,555
284,335;  286,945;  286,935;  287,485
284,424;  291,745;  283,915;  288,465
284,512;  280,645;  283,475;  286,175
284,600;  285,345;  279,415;  280,145
284,688;  322,445;  312,815;  317,115
284,776;  289,845;  286,815;  287,745
284,864;  318,045;  302,125;  308,655
284,952;  292,645;  289,625;  289,025
285,041;  305,345;  298,255;  298,145
285,129;  301,545;  299,435;  302,445
285,217;  307,945;  300,056;  303,885
285,305;  325,545;  318,676;  319,885
285,393;  274,145;  275,776;  278,695
285,481;  295,145;  296,665;  298,405
285,569;  286,945;  282,966;  285,145
285,657;  295,145;  295,165;  296,255
285,745;  293,045;  292,655;  293,125
285,833;  306,445;  289,505;  293,165
285,921;  302,045;  298,116;  300,945
286,009;  303,545;  301,105;  303,655
286,097;  288,745;  298,236;  301,315
286,185;  286,245;  284,405;  284,795
286,273;  280,945;  283,415;  284,655
286,361;  320,045;  307,915;  311,825
286,449;  300,345;  296,195;  294,565
286,537;  303,145;  304,105;  302,085
286,625;  296,645;  291,185;  293,415
286,713;  282,145;  275,806;  280,315
286,801;  304,645;  312,076;  307,795
286,889;  322,545;  319,435;  320,055
286,976;  292,445;  287,905;  291,205
287,064;  322,045;  307,635;  311,875
287,152;  301,445;  303,576;  305,585
287,240;  313,145;  309,185;  308,845
287,328;  288,345;  287,685;  281,755
287,416;  290,145;  290,975;  292,385
287,504;  296,745;  294,435;  298,285
287,591;  296,545;  298,176;  300,225
287,679;  293,445;  286,095;  286,145
287,767;  291,645;  298,206;  296,985
287,855;  315,845;  303,736;  307,515
287,943;  309,645;  306,716;  309,435
288,030;  292,245;  293,456;  291,795
288,118;  320,545;  318,255;  318,995
288,206;  276,945;  274,956;  275,705
288,294;  302,045;  301,986;  304,135
288,382;  299,645;  300,776;  303,615
288,469;  301,545;  304,396;  308,895
288,557;  290,745;  294,095;  292,615
288,645;  328,345;  323,396;  323,315
288,732;  276,045;  278,915;  279,235
288,820;  300,845;  304,576;  306,785
288,908;  310,245;  304,826;  303,915
288,995;  311,345;  310,945;  310,305
289,083;  299,645;  293,026;  292,935
289,171;  330,245;  320,165;  325,565
289,258;  365,245;  322,176;  324,305
289,346;  432,645;  326,266;  329,365
289,434;  325,745;  303,435;  306,185
289,521;  294,945;  280,415;  286,295
289,609;  327,645;  320,426;  325,405
289,697;  322,245;  312,336;  315,125
289,784;  300,645;  295,445;  295,775
289,872;  316,745;  306,905;  313,015
289,959;  284,345;  282,375;  283,415
290,047;  304,845;  296,546;  300,865
290,134;  266,845;  272,665;  273,815
290,222;  314,545;  308,915;  308,665
290,310;  309,045;  304,905;  307,145
290,397;  334,545;  328,505;  332,835
290,485;  297,245;  290,815;  293,005
290,572;  320,445;  313,225;  314,645
290,660;  303,445;  306,385;  306,205
290,747;  299,845;  295,165;  292,775
290,835;  299,245;  299,016;  302,505
290,922;  309,045;  304,016;  305,515
291,009;  308,945;  297,676;  301,715
291,097;  304,545;  297,926;  300,755
291,184;  334,445;  332,716;  338,585
291,272;  282,745;  282,966;  288,375
291,359;  284,645;  283,915;  289,305
291,447;  311,645;  303,086;  304,735
291,534;  325,545;  327,326;  323,005
291,621;  299,045;  302,845;  301,105
291,709;  289,845;  285,716;  283,705
291,796;  320,245;  320,146;  316,555
291,884;  287,245;  291,466;  296,115
291,971;  320,945;  315,065;  320,295
292,058;  297,845;  288,725;  288,985
292,146;  295,145;  293,746;  297,955
292,233;  287,545;  285,426;  284,765
292,320;  295,645;  294,306;  297,685
292,408;  313,045;  309,086;  308,565
292,495;  304,545;  290,565;  293,085
292,582;  289,845;  286,845;  287,375
292,669;  293,345;  281,415;  286,055
292,757;  285,345;  282,176;  283,865
292,844;  311,745;  312,935;  313,175
292,931;  271,845;  275,176;  277,485
293,018;  294,045;  291,516;  289,915
293,106;  293,345;  299,966;  303,035
293,193;  272,745;  272,415;  274,385
293,280;  292,645;  297,255;  303,635
293,367;  295,145;  296,956;  295,215
293,455;  297,345;  293,185;  294,155
293,542;  275,145;  275,695;  281,445
293,629;  279,345;  279,035;  281,855
293,716;  316,245;  305,646;  311,195
293,803;  291,345;  287,105;  287,695
293,890;  319,245;  310,336;  312,555
293,978;  288,145;  284,105;  290,755
294,065;  280,445;  286,725;  284,345
294,152;  305,745;  302,385;  304,355
294,239;  275,545;  275,646;  274,625
294,326;  283,845;  286,746;  290,635
294,413;  276,945;  278,046;  278,465
294,500;  306,545;  292,586;  295,255
294,587;  289,245;  283,915;  287,195
294,674;  311,345;  305,875;  306,925
294,761;  287,045;  288,896;  287,945
294,848;  286,445;  286,866;  294,115
294,935;  300,045;  290,746;  290,555
295,022;  280,745;  272,396;  274,105
295,109;  263,445;  258,466;  262,665
295,196;  291,145;  291,405;  295,265
295,283;  283,745;  281,176;  278,745
295,370;  305,745;  308,975;  312,155
295,457;  293,245;  289,986;  290,435
295,544;  287,345;  285,105;  287,985
295,631;  303,445;  290,165;  295,805
295,718;  274,745;  272,676;  274,015
295,805;  299,845;  296,225;  296,685
295,892;  309,245;  300,005;  304,445
295,979;  297,045;  291,266;  292,755
296,066;  305,845;  293,996;  296,145
296,153;  300,745;  296,026;  296,355
296,240;  302,345;  299,206;  300,535
296,327;  291,945;  285,206;  285,615
296,413;  326,345;  301,285;  305,075
296,500;  333,945;  302,755;  305,145
296,587;  520,945;  288,616;  286,065
296,674; 1594,845;  294,396;  297,335
296,761;  832,745;  300,095;  298,245
296,848;  303,845;  281,956;  285,815
296,934;  301,845;  290,966;  295,265
297,021;  297,345;  292,565;  292,975
297,108;  291,245;  276,366;  280,895
297,195;  302,945;  291,466;  294,705
297,282;  294,045;  286,535;  286,195
297,368;  307,845;  310,026;  305,975
297,455;  279,945;  279,155;  283,145
297,542;  313,645;  311,375;  313,235
297,629;  302,645;  299,016;  300,205
297,715;  310,045;  308,285;  310,385
297,802;  307,745;  300,466;  303,285
297,889;  321,045;  311,716;  313,025
297,975;  328,745;  322,836;  323,685
298,062;  316,645;  310,505;  312,995
298,149;  269,645;  273,505;  274,905
298,235;  300,045;  291,135;  294,075
298,322;  298,545;  294,806;  292,785
298,409;  323,345;  311,195;  312,715
298,495;  283,345;  285,435;  283,435
298,582;  316,645;  307,516;  308,065
298,669;  297,745;  290,526;  294,245
298,755;  304,245;  299,065;  302,235
298,842;  305,145;  304,755;  309,095
298,928;  298,945;  303,855;  304,595
299,015;  294,545;  294,896;  296,705
299,102;  325,445;  318,986;  320,565
299,188;  319,445;  315,956;  316,045
299,275;  315,145;  309,926;  309,365
299,361;  283,345;  278,875;  281,665
299,448;  310,745;  312,466;  310,885
299,534;  317,145;  312,355;  312,735
299,621;  301,045;  304,655;  303,865
299,707;  306,645;  299,016;  304,675
299,794;  328,345;  319,885;  319,685
299,880;  313,845;  317,076;  318,325
299,967;  309,245;  296,345;  296,295
300,053;  295,745;  295,935;  299,065
300,140;  331,645;  323,086;  328,875
300,226;  314,845;  313,885;  313,595
300,312;  305,245;  307,276;  306,695
300,399;  307,445;  305,505;  308,465
300,485;  302,045;  297,776;  301,725
300,572;  278,145;  281,655;  281,655
300,658;  305,445;  297,216;  294,585
300,744;  307,045;  310,706;  311,315
300,831;  329,145;  313,595;  318,275
300,917;  323,845;  321,676;  320,915
301,004;  299,845;  311,556;  311,015
301,090;  284,445;  277,785;  280,095
301,176;  292,945;  284,255;  288,205
301,263;  322,845;  313,676;  314,925
301,349;  303,645;  289,475;  293,305
301,435;  280,145;  284,276;  285,095
301,521;  316,845;  314,625;  313,245
301,608;  307,245;  314,695;  315,515
301,694;  313,745;  297,896;  300,535
301,780;  297,945;  303,046;  298,285
301,867;  285,745;  280,836;  285,265
301,953;  302,945;  296,595;  301,165
302,039;  373,745;  295,116;  297,515
302,125;  531,345;  298,445;  304,125
302,211;  363,645;  332,926;  334,115
302,298;  347,345;  301,926;  305,295
302,384;  298,545;  281,116;  287,095
302,470;  300,045;  289,505;  291,305
302,556;  310,345;  301,935;  305,645
302,642;  302,745;  293,456;  295,155
302,729;  297,545;  289,306;  293,525
302,815;  306,945;  317,966;  319,775
302,901;  288,345;  296,475;  298,745
302,987;  318,245;  307,716;  308,245
303,073;  313,645;  304,185;  302,795
303,159;  299,745;  296,945;  298,695
303,245;  285,345;  284,336;  290,495
303,331;  291,545;  283,486;  286,455
303,417;  298,945;  294,556;  296,145
303,503;  316,945;  310,046;  312,155
303,590;  286,145;  289,146;  291,705
303,676;  300,845;  299,505;  300,385
303,762;  285,645;  287,185;  287,835
303,848;  314,945;  311,026;  312,055
303,934;  313,145;  304,915;  307,775
304,020;  301,945;  301,796;  304,745
304,106;  312,445;  309,975;  314,015
304,192;  300,945;  291,796;  296,765
304,278;  305,345;  302,896;  304,455
304,364;  329,945;  323,026;  324,755
304,450;  308,145;  301,496;  304,095
304,535;  299,945;  304,005;  304,245
304,621;  306,245;  301,565;  302,205
304,707;  308,145;  306,296;  307,635
304,793;  316,345;  318,625;  318,575
304,879;  314,645;  306,776;  310,585
304,965;  312,645;  312,845;  313,365
305,051;  317,145;  308,616;  311,355
305,137;  319,045;  318,146;  324,235
305,223;  292,645;  291,445;  293,725
305,309;  320,545;  313,496;  317,755
305,394;  315,945;  311,996;  311,465
305,480;  292,145;  299,426;  304,775
305,566;  307,645;  309,355;  310,525
305,652;  304,645;  313,605;  317,885
305,738;  352,545;  349,206;  353,435
305,824;  300,245;  316,016;  315,095
305,909;  327,845;  323,815;  325,155
305,995;  286,445;  289,595;  290,025
306,081;  340,945;  348,345;  350,435
306,167;  313,545;  303,966;  307,875
306,252;  323,845;  324,375;  325,505
306,338;  333,745;  331,366;  335,515
306,424;  304,145;  306,595;  307,415
306,510;  320,245;  316,105;  319,795
306,595;  325,345;  323,685;  322,125
306,681;  318,545;  316,926;  318,895
306,767;  307,345;  305,336;  309,425
306,852;  338,645;  328,255;  331,375
306,938;  328,545;  325,796;  325,905
307,024;  303,545;  302,875;  304,755
307,109;  332,545;  336,065;  338,965
307,195;  315,145;  316,326;  318,385
307,281;  321,645;  318,716;  318,575
307,366;  322,645;  313,345;  310,455
307,452;  319,045;  312,426;  316,335
307,537;  295,845;  296,776;  298,485
307,623;  288,145;  292,105;  296,985
307,709;  306,145;  309,885;  310,795
307,794;  285,745;  288,576;  291,835
307,880;  318,845;  320,236;  319,735
307,965;  304,445;  307,456;  307,525
308,051;  293,445;  297,195;  298,065
308,136;  296,745;  297,165;  296,745
308,222;  295,945;  300,366;  302,045
308,307;  287,545;  295,116;  296,645
308,393;  301,745;  295,535;  300,335
308,478;  315,545;  321,826;  318,975
308,564;  289,345;  295,516;  288,925
308,649;  305,445;  308,496;  308,295
308,735;  298,245;  294,155;  300,535
308,820;  312,145;  320,655;  319,455
308,906;  295,145;  291,625;  300,515
308,991;  344,045;  341,076;  338,375
309,076;  315,545;  319,336;  320,645
309,162;  284,245;  283,945;  283,805
309,247;  311,645;  309,945;  308,415
309,333;  297,045;  291,646;  297,855
309,418;  301,145;  298,665;  301,955
309,503;  292,445;  297,646;  300,235
309,589;  304,445;  303,725;  305,345
309,674;  291,845;  290,945;  289,235
309,759;  303,245;  303,315;  304,195
309,845;  314,045;  311,016;  312,415
309,930;  307,645;  305,966;  307,375
310,015;  273,445;  276,095;  276,835
310,101;  320,445;  315,616;  319,905
310,186;  283,245;  285,426;  288,565
310,271;  305,945;  297,296;  298,295
310,357;  295,145;  297,526;  296,455
310,442;  302,545;  302,445;  303,865
310,527;  303,445;  297,766;  301,125
310,612;  282,045;  278,195;  281,425
310,698;  323,145;  319,725;  321,135
310,783;  305,245;  301,176;  302,685
310,868;  295,945;  294,285;  295,125
310,953;  284,545;  284,165;  285,195
311,038;  318,445;  311,146;  310,075
311,124;  296,945;  294,635;  290,925
311,209;  274,645;  276,736;  277,355
311,294;  315,245;  310,206;  312,575
311,379;  285,945;  276,785;  277,345
311,464;  299,345;  297,405;  297,635
311,549;  291,445;  282,385;  284,505
311,634;  297,745;  290,396;  286,805
311,719;  317,745;  316,016;  315,415
311,805;  295,945;  289,266;  291,605
311,890;  301,745;  295,165;  295,925
311,975;  289,345;  281,526;  286,055
312,060;  316,145;  298,146;  302,435
312,145;  288,045;  277,586;  276,025
312,230;  320,445;  290,815;  296,495
312,315;  325,045;  294,065;  296,045
312,400;  398,445;  296,396;  299,795
312,485; 1536,845;  290,535;  292,475
312,570; 1263,545;  277,125;  279,615
312,655;  343,345;  308,176;  313,325
312,740;  327,045;  301,616;  302,005
312,825;  338,745;  304,105;  307,725
312,910;  355,945;  307,736;  309,235
312,995;  437,745;  296,236;  298,245
313,080; 1933,245;  285,655;  286,805
313,165; 2195,145;  303,565;  305,305
313,250;  372,145;  287,276;  287,825
313,335;  332,445;  307,435;  312,125
313,419;  282,145;  267,466;  268,635
313,504;  316,145;  313,355;  315,225
313,589;  310,145;  295,216;  297,545
313,674;  314,445;  307,206;  310,085
313,759;  282,745;  281,556;  282,625
313,844;  296,145;  292,776;  291,005
313,929;  293,545;  289,945;  291,695
314,014;  326,245;  313,306;  315,005
314,098;  311,845;  299,035;  300,425
314,183;  263,045;  263,505;  263,795
314,268;  301,945;  296,496;  298,955
314,353;  311,345;  302,026;  306,185
314,438;  313,445;  306,905;  311,515
314,522;  311,045;  309,486;  308,535
314,607;  322,545;  307,565;  307,855
314,692;  310,145;  301,885;  303,855
314,777;  300,545;  291,766;  292,395
314,861;  286,645;  277,285;  276,385
314,946;  313,045;  315,116;  317,565
315,031;  301,345;  291,875;  294,115
315,115;  312,345;  306,206;  308,065
315,200;  318,345;  312,146;  313,065
315,285;  291,745;  289,486;  289,595
315,369;  278,745;  287,945;  288,545
315,454;  316,445;  311,905;  311,025
315,539;  312,645;  310,246;  307,795
315,623;  311,345;  309,426;  313,225
315,708;  331,945;  335,605;  336,825
315,793;  300,445;  297,986;  298,155
315,877;  310,045;  302,975;  305,445
315,962;  281,645;  289,105;  291,925
316,046;  321,245;  317,065;  319,225
316,131;  330,445;  334,516;  337,215
316,216;  308,245;  310,315;  310,785
316,300;  294,145;  303,345;  302,165
316,385;  329,645;  325,315;  324,305
316,469;  327,145;  330,625;  331,955
316,554;  300,845;  296,005;  298,425
316,638;  305,245;  296,725;  301,565
316,723;  298,045;  292,546;  293,795
316,807;  292,045;  299,595;  299,275
316,892;  291,345;  288,975;  289,925
316,976;  321,845;  314,405;  316,505
317,061;  303,645;  306,035;  305,965
317,145;  333,745;  327,655;  325,965
317,230;  319,345;  321,505;  319,905
317,314;  275,045;  275,565;  275,085
317,398;  307,845;  310,706;  312,245
317,483;  286,545;  290,026;  291,085
317,567;  309,045;  315,326;  317,865
317,652;  281,145;  283,526;  286,625
317,736;  302,045;  308,776;  309,285
317,820;  338,245;  329,005;  334,665
317,905;  307,745;  306,706;  307,035
317,989;  297,945;  298,285;  300,875
318,073;  301,145;  298,076;  297,705
318,158;  285,445;  284,966;  285,565
318,242;  308,545;  296,845;  299,095
318,326;  287,045;  283,155;  284,015
318,411;  291,245;  295,125;  296,565
318,495;  293,545;  285,776;  287,165
318,579;  300,245;  288,746;  289,305
318,664;  282,145;  280,315;  284,255
318,748;  303,845;  305,996;  310,145
318,832;  291,145;  290,806;  289,475
318,916;  260,945;  274,785;  277,335
319,001;  299,545;  299,945;  301,485
319,085;  284,045;  292,885;  290,905
319,169;  296,945;  293,396;  294,485
319,253;  284,845;  287,216;  285,525
319,337;  310,145;  306,246;  304,885
319,422;  319,745;  316,125;  313,225
319,506;  282,645;  283,326;  285,905
319,590;  303,845;  303,915;  305,525
319,674;  294,545;  291,926;  295,405
319,758;  306,345;  295,165;  300,215
319,842;  311,245;  306,135;  309,155
319,926;  293,445;  294,815;  295,205
320,010;  271,445;  267,046;  269,575
320,095;  277,745;  280,926;  284,685
320,179;  287,045;  279,125;  281,175
320,263;  288,345;  277,385;  285,805
320,347;  279,545;  271,296;  279,075
320,431;  272,945;  273,435;  274,355
320,515;  301,045;  296,375;  299,935
320,599;  280,845;  269,866;  273,825
320,683;  304,645;  305,706;  305,495
320,767;  270,945;  266,236;  266,205
320,851;  283,445;  281,855;  287,785
320,935;  319,645;  312,565;  318,275
321,019;  293,345;  292,975;  290,075
321,103;  276,445;  278,135;  280,585
321,187;  276,045;  273,165;  273,265
321,271;  292,945;  294,616;  296,825
321,355;  278,545;  281,595;  283,805
321,439;  298,045;  301,216;  301,725
321,523;  279,945;  282,266;  284,705
321,606;  293,045;  287,426;  288,215
321,690;  294,345;  287,026;  288,215
321,774;  298,445;  288,336;  292,205
321,858;  279,245;  292,966;  291,945
321,942;  299,245;  294,276;  298,975
322,026;  289,745;  283,315;  282,695
322,110;  295,845;  293,146;  295,755
322,194;  302,745;  295,355;  301,055
322,277;  284,245;  286,135;  287,285
322,361;  279,245;  278,595;  281,215
322,445;  288,845;  289,315;  291,095
322,529;  295,245;  297,716;  299,645
322,613;  295,045;  297,206;  297,795
322,696;  266,145;  267,695;  272,865
322,780;  289,945;  283,026;  283,485
322,864;  270,745;  272,625;  279,835
322,948;  298,545;  292,326;  295,965
323,031;  284,545;  281,565;  282,215
323,115;  284,145;  284,586;  285,215
323,199;  311,645;  296,565;  299,105
323,282;  317,345;  307,496;  310,065
323,366;  296,345;  287,296;  293,625
323,450;  278,445;  273,496;  275,835
323,533;  322,445;  314,576;  317,415
323,617;  266,445;  268,695;  271,585
323,701;  278,345;  281,105;  283,575
323,784;  294,445;  292,576;  294,205
323,868;  294,645;  297,866;  299,875
323,952;  296,145;  290,966;  294,175
324,035;  311,845;  305,926;  310,825
324,119;  296,645;  295,466;  298,455
324,202;  296,545;  286,836;  292,745
324,286;  282,245;  284,986;  286,605
324,370;  296,745;  293,105;  296,765
324,453;  303,345;  299,616;  301,745
324,537;  292,445;  294,426;  298,035
324,620;  291,445;  286,635;  291,765
324,704;  272,845;  270,445;  276,525
324,787;  287,545;  294,875;  296,265
324,871;  316,345;  310,986;  315,255
324,954;  320,745;  312,246;  315,985
325,038;  301,645;  306,466;  306,985
325,121;  303,545;  308,695;  312,075
325,205;  288,345;  290,396;  293,295
325,288;  274,545;  279,556;  285,675
325,371;  302,845;  298,945;  302,395
325,455;  312,445;  314,026;  312,045
325,538;  285,045;  281,516;  287,185
325,622;  326,945;  320,806;  321,295
325,705;  295,545;  297,716;  298,675
325,788;  307,345;  313,625;  316,645
325,872;  295,345;  300,796;  300,745
325,955;  328,145;  319,845;  325,065
326,039;  310,745;  309,576;  312,795
326,122;  312,945;  310,746;  311,665
326,205;  316,845;  311,806;  310,235
326,289;  321,945;  313,986;  319,245
326,372;  307,345;  294,746;  299,195
326,455;  327,845;  323,095;  324,405
326,538;  312,045;  312,336;  316,545
326,622;  317,445;  318,396;  320,075
326,705;  290,445;  287,315;  287,875
326,788;  326,845;  321,266;  322,405
326,871;  325,845;  315,576;  317,965
326,955;  308,745;  313,836;  315,225
327,038;  309,145;  310,116;  310,855
327,121;  312,445;  301,516;  307,855
327,204;  316,845;  313,216;  314,045
327,288;  339,445;  328,956;  332,375
327,371;  294,845;  288,185;  296,955
327,454;  307,645;  313,065;  313,845
327,537;  307,845;  299,815;  302,435
327,620;  338,645;  322,935;  330,145
327,703;  313,945;  309,076;  310,615
327,786;  310,745;  311,076;  312,115
327,870;  325,745;  323,155;  328,715
327,953;  297,945;  301,155;  305,785
328,036;  304,645;  293,105;  299,035
328,119;  320,545;  317,576;  321,135
328,202;  299,145;  301,885;  305,875
328,285;  327,945;  326,776;  329,015
328,368;  330,445;  320,935;  322,625
328,451;  321,645;  320,635;  322,565
328,534;  305,545;  301,266;  307,075
328,617;  309,145;  305,676;  311,785
328,700;  330,345;  326,505;  326,695
328,783;  322,445;  320,785;  322,875
328,866;  313,845;  314,095;  319,935
328,949;  329,545;  319,966;  326,555
329,032;  302,845;  297,826;  300,605
329,115;  297,645;  290,905;  295,945
329,198;  287,545;  282,956;  283,785
329,281;  304,945;  299,336;  298,465
329,364;  322,545;  316,246;  319,245
329,447;  307,545;  307,176;  309,255
329,530;  328,645;  328,155;  328,175
329,613;  304,045;  300,565;  306,725
329,696;  334,045;  326,806;  330,715
329,778;  315,545;  311,306;  316,915
329,861;  295,445;  295,236;  299,565
329,944;  328,745;  321,685;  327,225
330,027;  314,745;  311,576;  315,115
330,110;  316,645;  307,595;  311,705
330,193;  288,045;  295,306;  299,955
330,275;  319,045;  312,296;  315,835
330,358;  291,745;  291,776;  296,185
330,441;  325,045;  323,586;  325,365
330,524;  306,645;  305,216;  311,095
330,607;  307,045;  304,345;  306,905
330,689;  320,045;  313,105;  314,535
330,772;  311,745;  311,105;  312,425
330,855;  326,345;  325,065;  327,855
330,938;  323,945;  312,315;  321,275
331,020;  319,945;  317,176;  320,535
331,103;  298,045;  293,035;  294,505
331,186;  304,445;  305,146;  307,085
331,268;  301,745;  293,565;  298,695
331,351;  318,645;  313,026;  316,455
331,434;  310,045;  308,385;  312,645
331,516;  324,445;  319,076;  321,185
331,599;  306,045;  297,095;  301,425
331,682;  313,945;  310,736;  310,985
331,764;  301,245;  293,326;  297,915
331,847;  329,945;  313,716;  315,705
331,929;  294,545;  290,026;  293,225
332,012;  316,645;  309,625;  310,055
332,095;  324,245;  323,306;  326,625
332,177;  331,845;  320,806;  324,285
332,260;  330,345;  327,526;  328,035
332,342;  306,945;  309,246;  314,445
332,425;  319,045;  312,516;  311,505
332,507;  314,345;  308,526;  311,575
332,590;  292,245;  287,595;  291,655
332,672;  290,645;  294,885;  298,455
332,755;  305,645;  306,855;  311,605
332,837;  308,545;  310,716;  312,255
332,920;  310,445;  309,076;  315,155
333,002;  325,845;  325,676;  328,895
333,085;  312,945;  313,375;  315,165
333,167;  301,545;  296,875;  298,575
333,249;  299,745;  294,526;  298,145
333,332;  304,245;  293,296;  297,715
333,414;  308,945;  300,035;  304,875
333,497;  302,845;  300,255;  302,305
333,579;  312,145;  300,996;  306,375
333,661;  331,445;  319,706;  320,745
333,744;  285,545;  293,695;  297,125
333,826;  307,345;  305,766;  306,065
333,908;  325,645;  313,896;  316,665
333,991;  303,045;  291,266;  291,545
334,073;  466,045;  312,706;  318,525
334,155;  367,045;  304,086;  305,525
334,238;  327,745;  318,576;  326,145
334,320;  298,345;  297,046;  300,585
334,402;  304,045;  302,996;  304,895
334,485;  311,545;  303,655;  304,015
334,567;  295,645;  299,776;  301,975
334,649;  279,445;  278,426;  282,925
334,731;  314,145;  313,456;  317,305
334,813;  296,545;  315,605;  320,355
334,896;  292,945;  290,185;  294,595
334,978;  297,245;  309,165;  302,585
335,060;  307,845;  304,255;  304,235
335,142;  302,645;  301,665;  302,275
335,224;  312,345;  309,766;  311,745
335,307;  300,245;  297,456;  298,965
335,389;  322,645;  310,385;  317,305
335,471;  309,845;  299,896;  306,115
335,553;  326,445;  319,866;  318,905
335,635;  312,545;  312,836;  315,315
335,717;  300,345;  298,195;  300,145
335,799;  316,845;  322,695;  323,585
335,881;  287,445;  278,385;  282,845
335,963;  302,345;  291,796;  293,005
336,045;  299,245;  295,516;  301,085
336,128;  275,845;  270,945;  275,225
336,210;  288,945;  288,996;  292,295
336,292;  298,745;  297,845;  300,615
336,374;  302,045;  300,956;  306,155
336,456;  287,745;  285,616;  288,495
336,538;  305,745;  303,165;  304,435
336,620;  309,845;  310,576;  312,205
336,702;  299,845;  294,766;  294,235
336,783;  307,845;  302,556;  304,225
336,865;  308,445;  304,176;  305,725
336,947;  310,845;  308,486;  311,205
337,029;  286,645;  281,826;  282,945
337,111;  314,545;  316,266;  316,735
337,193;  287,145;  280,986;  284,795
337,275;  312,245;  310,815;  314,535
337,357;  318,145;  318,815;  324,805
337,439;  309,845;  305,255;  310,655
337,521;  283,845;  277,225;  280,915
337,602;  304,345;  298,435;  301,085
337,684;  316,045;  315,635;  317,455
337,766;  310,145;  312,266;  312,305
337,848;  294,945;  295,086;  301,025
337,930;  307,945;  303,165;  306,525
338,012;  302,145;  298,586;  299,555
338,093;  313,245;  312,396;  315,895
338,175;  317,545;  318,195;  321,575
338,257;  298,945;  306,945;  309,225
338,339;  290,145;  294,086;  300,165
338,420;  307,145;  310,986;  310,895
338,502;  304,445;  298,836;  304,265
338,584;  288,245;  286,736;  289,235
338,666;  305,945;  303,426;  302,365
338,747;  331,145;  330,806;  334,875
338,829;  312,545;  309,176;  309,265
338,911;  285,845;  296,236;  298,915
338,992;  282,845;  295,746;  294,435
339,074;  295,945;  306,155;  307,855
339,156;  297,945;  298,176;  303,395
339,237;  330,645;  325,035;  327,765
339,319;  293,945;  294,935;  300,045
339,400;  309,745;  309,065;  311,225
339,482;  278,145;  278,165;  280,605
339,564;  319,045;  317,026;  316,575
339,645;  298,345;  304,595;  308,105
339,727;  288,445;  290,216;  294,375
339,808;  330,145;  317,685;  322,555
339,890;  305,845;  299,956;  302,415
339,971;  313,145;  307,016;  315,055
340,053;  337,745;  336,746;  335,255
340,134;  293,245;  296,535;  298,415
340,216;  308,345;  315,556;  319,645
340,297;  302,245;  298,396;  301,525
340,379;  316,645;  314,736;  316,975
340,460;  308,745;  306,685;  306,615
340,542;  292,645;  294,535;  297,775
340,623;  313,245;  307,926;  312,435
340,705;  292,845;  297,516;  295,795
340,786;  291,245;  289,685;  291,925
340,868;  310,745;  308,826;  304,055
340,949;  287,045;  285,605;  286,145
341,030;  335,345;  321,435;  328,715
341,112;  280,345;  280,565;  284,075
341,193;  264,745;  270,135;  273,595
341,274;  328,245;  322,176;  320,965
341,356;  328,245;  320,716;  321,795
341,437;  297,745;  301,635;  300,825
341,518;  314,045;  307,176;  314,795
341,600;  319,845;  320,866;  322,465
341,681;  329,645;  328,866;  332,375
341,762;  318,645;  325,206;  323,705
341,844;  282,745;  287,146;  292,185
341,925;  304,145;  308,225;  311,205
342,006;  327,745;  320,426;  323,055
342,087;  298,445;  288,095;  292,095
342,169;  301,345;  307,026;  309,845
342,250;  286,345;  286,935;  285,935
342,331;  305,145;  298,706;  299,075
342,412;  318,545;  307,655;  310,045
342,493;  290,845;  289,415;  293,325
342,575;  321,945;  327,095;  327,355
342,656;  318,645;  318,466;  318,265
342,737;  331,345;  329,836;  330,295
342,818;  300,245;  307,996;  309,015
342,899;  315,945;  314,505;  317,165
342,980;  313,845;  306,695;  310,155
343,061;  298,445;  303,065;  304,715
343,143;  324,245;  319,535;  319,565
343,224;  312,545;  306,706;  305,915
343,305;  296,345;  299,625;  303,115
343,386;  300,545;  297,996;  300,475
343,467;  302,645;  303,155;  305,535
343,548;  303,945;  304,176;  305,935
343,629;  317,645;  316,405;  317,625
343,710;  320,445;  322,766;  321,015
343,791;  322,045;  325,065;  327,935
343,872;  296,445;  298,975;  297,795
343,953;  310,545;  314,826;  316,625
344,034;  315,945;  319,475;  324,485
344,115;  312,045;  304,255;  303,425
344,196;  296,345;  298,935;  302,165
344,277;  288,445;  293,306;  294,615
344,358;  312,545;  304,755;  307,345
344,439;  301,245;  293,975;  294,205
344,520;  291,445;  298,546;  300,975
344,601;  317,845;  314,646;  315,525
344,681;  301,845;  302,426;  303,825
344,762;  287,845;  283,466;  287,625
344,843;  281,545;  275,996;  281,125
344,924;  309,845;  303,635;  306,085
345,005;  286,445;  287,176;  288,725
345,086;  306,645;  307,665;  309,725
345,167;  293,045;  293,986;  295,575
345,247;  321,645;  323,896;  328,905
345,328;  315,945;  315,315;  317,705
345,409;  310,445;  307,056;  309,355
345,490;  312,745;  308,415;  314,245
345,571;  306,045;  304,875;  312,045
345,651;  273,145;  279,456;  279,055
345,732;  307,445;  307,285;  312,275
345,813;  312,645;  311,836;  317,355
345,894;  285,945;  285,785;  287,595
345,974;  311,145;  309,556;  311,845
346,055;  297,245;  296,435;  295,735
346,136;  310,445;  304,405;  306,245
346,216;  317,445;  324,945;  328,565
346,297;  302,745;  306,565;  304,225
346,378;  288,245;  291,996;  294,005
346,458;  315,745;  307,375;  313,405
346,539;  303,745;  302,306;  305,975
346,620;  294,445;  305,815;  306,685
346,700;  288,945;  288,755;  289,765
346,781;  296,745;  284,556;  286,765
346,861;  309,645;  304,336;  307,325
346,942;  306,545;  304,336;  302,715
347,023;  311,145;  317,885;  316,005
347,103;  305,245;  297,396;  302,825
347,184;  293,345;  294,475;  296,785
347,264;  288,645;  294,565;  296,805
347,345;  293,845;  290,526;  295,525
347,425;  290,245;  285,125;  290,565
347,506;  282,445;  283,595;  283,195
347,586;  287,745;  289,725;  292,435
347,667;  303,145;  307,616;  304,445
347,747;  312,045;  311,116;  310,775
347,828;  297,145;  296,486;  296,465
347,908;  300,045;  303,306;  307,175
347,988;  297,645;  298,655;  306,125
348,069;  314,245;  311,056;  311,395
348,149;  312,745;  303,956;  309,065
348,230;  309,645;  309,956;  310,945
348,310;  274,745;  284,185;  285,715
348,390;  283,545;  288,526;  288,625
348,471;  300,145;  303,665;  305,125
348,551;  290,945;  290,695;  293,935
348,632;  285,945;  289,505;  294,065
348,712;  288,945;  292,706;  295,115
348,792;  330,345;  329,836;  329,985
348,873;  284,145;  281,905;  283,045
348,953;  285,145;  289,845;  290,395
349,033;  303,445;  297,466;  299,465
349,113;  289,745;  286,076;  286,905
349,194;  315,045;  301,595;  304,825
349,274;  303,345;  304,796;  307,395
349,354;  307,045;  303,046;  308,435
349,434;  296,845;  300,116;  301,925
349,515;  319,945;  316,486;  322,185
349,595;  304,745;  302,206;  302,035
349,675;  301,645;  305,635;  308,015
349,755;  297,345;  296,746;  297,615
349,835;  307,045;  301,195;  307,695
349,916;  305,245;  298,435;  303,915
349,996;  292,945;  291,105;  291,745
350,076;  307,045;  312,375;  317,645
350,156;  277,745;  284,836;  287,665
350,236;  307,045;  314,116;  311,925
350,316;  287,345;  292,975;  295,765
350,396;  300,745;  305,646;  310,065
350,476;  307,545;  301,826;  304,275
350,556;  302,345;  293,966;  299,935
350,637;  320,945;  321,005;  321,825
350,717;  291,745;  288,445;  291,825
350,797;  303,845;  302,616;  305,905
350,877;  288,145;  289,875;  294,705
350,957;  303,645;  297,635;  300,095
351,037;  299,445;  298,556;  303,455
351,117;  287,045;  296,276;  296,555
351,197;  299,145;  303,366;  306,305
351,277;  300,945;  300,556;  301,575
351,357;  303,245;  308,806;  314,445
351,437;  306,945;  306,105;  307,755
351,516;  320,545;  317,986;  318,355
351,596;  289,845;  292,896;  296,025
351,676;  297,345;  290,405;  294,265
351,756;  328,945;  323,426;  326,135
351,836;  316,945;  313,866;  317,935
351,916;  297,445;  297,905;  298,975
351,996;  301,445;  303,996;  305,265
352,076;  302,045;  303,486;  303,085
352,156;  317,945;  319,556;  320,405
352,235;  301,045;  301,255;  300,955
352,315;  316,145;  312,456;  314,415
352,395;  301,145;  308,206;  309,425
352,475;  309,745;  315,405;  320,955
352,555;  332,045;  330,236;  330,635
352,634;  328,745;  321,956;  326,705
352,714;  303,645;  302,595;  304,055
352,794;  356,545;  354,466;  358,075
352,874;  312,045;  314,685;  317,555
352,953;  340,445;  337,676;  339,095
353,033;  321,645;  319,306;  320,925
353,113;  342,545;  332,135;  336,575
353,193;  320,945;  328,046;  329,935
353,272;  335,745;  333,135;  334,365
353,352;  297,145;  307,035;  311,285
353,432;  342,345;  343,005;  347,495
353,511;  329,545;  326,185;  330,665
353,591;  360,645;  361,616;  362,555
353,671;  331,645;  331,926;  333,015
353,750;  331,245;  332,296;  331,275
353,830;  318,845;  313,646;  317,015
353,909;  348,045;  339,836;  343,655
353,989;  317,345;  317,385;  320,255
354,069;  324,245;  319,456;  319,155
354,148;  336,345;  335,035;  339,585
354,228;  316,245;  315,695;  316,905
354,307;  326,245;  329,405;  332,345
354,387;  322,945;  322,095;  322,965
354,466;  315,645;  311,635;  316,045
354,546;  335,645;  335,135;  337,645
354,625;  325,045;  319,815;  320,355
354,705;  321,745;  324,246;  326,865
354,784;  319,245;  316,445;  318,195
354,864;  318,245;  316,635;  317,385
354,943;  325,845;  333,695;  339,105
355,023;  311,045;  310,996;  312,285
355,102;  358,545;  362,866;  363,435
355,181;  312,745;  315,966;  318,045
355,261;  333,345;  338,056;  342,165
355,340;  308,045;  303,845;  307,115
355,420;  350,845;  340,105;  342,305
355,499;  323,845;  322,975;  325,635
355,578;  314,545;  315,276;  316,885
355,658;  333,545;  332,875;  333,745
355,737;  320,245;  317,576;  319,005
355,816;  324,545;  323,276;  324,605
355,896;  323,045;  316,026;  321,355
355,975;  305,845;  307,355;  310,055
356,054;  306,145;  311,935;  312,455
356,133;  294,345;  290,565;  293,305
356,213;  329,945;  324,845;  324,825
356,292;  308,745;  304,016;  309,325
356,371;  319,845;  314,146;  314,035
356,451;  322,645;  324,755;  327,685
356,530;  342,145;  349,496;  350,795
356,609;  306,745;  311,146;  315,535
356,688;  319,845;  316,475;  316,165
356,767;  305,945;  304,695;  309,855
356,846;  323,845;  327,035;  327,235
356,926;  341,845;  340,016;  343,965
357,005;  317,445;  318,345;  318,565
357,084;  303,845;  304,466;  308,385
357,163;  316,045;  317,706;  317,185
357,242;  315,245;  320,146;  319,515
357,321;  307,445;  314,496;  316,575
357,400;  321,245;  321,236;  318,865
357,479;  318,545;  317,725;  320,795
357,559;  323,345;  321,405;  325,705
357,638;  296,445;  300,616;  298,815
357,717;  317,145;  313,746;  311,555
357,796;  332,545;  329,266;  330,875
357,875;  312,245;  314,466;  313,455
357,954;  308,645;  310,155;  313,855
358,033;  299,145;  323,405;  320,935
358,112;  334,245;  329,966;  328,315
358,191;  327,645;  315,276;  318,965
358,270;  297,745;  295,505;  297,695
358,349;  322,645;  321,625;  323,725
358,428;  330,745;  322,445;  326,125
358,507;  327,745;  321,366;  325,105
358,585;  315,045;  320,355;  325,525
358,664;  325,945;  332,266;  334,505
358,743;  319,645;  323,776;  326,515
358,822;  337,945;  334,475;  338,195
358,901;  316,545;  309,176;  309,505
358,980;  313,345;  310,885;  313,735
359,059;  331,345;  328,616;  332,255
359,138;  329,145;  329,415;  328,565
359,216;  326,045;  322,225;  327,485
359,295;  308,645;  309,475;  309,515
359,374;  337,745;  330,026;  333,455
359,453;  321,745;  316,345;  320,885
359,532;  322,745;  304,526;  308,455
359,610;  324,345;  319,556;  323,285
359,689;  331,845;  331,116;  333,025
359,768;  310,345;  313,706;  315,305
359,847;  306,945;  302,065;  305,385
359,925;  293,145;  304,105;  307,215
360,004;  313,545;  299,565;  302,585
360,083;  320,145;  320,165;  321,795
360,161;  305,845;  305,676;  309,885
360,240;  295,345;  288,725;  291,455
360,319;  318,945;  318,276;  317,225
360,397;  318,745;  324,986;  331,265
360,476;  321,645;  318,296;  324,355
360,555;  348,245;  345,565;  346,835
360,633;  305,145;  304,456;  304,945
360,712;  310,645;  309,056;  311,825
360,790;  323,745;  330,065;  331,185
360,869;  322,745;  310,266;  313,085
360,948;  324,845;  322,466;  322,235
361,026;  299,045;  300,065;  301,245
361,105;  322,945;  306,116;  309,875
361,183;  324,045;  324,725;  326,345
361,262;  301,645;  302,375;  307,465
361,340;  306,345;  305,815;  306,875
361,419;  301,245;  289,896;  290,845
361,497;  342,145;  340,926;  346,955
361,576;  325,545;  317,736;  323,245
361,654;  341,045;  342,736;  343,615
361,733;  299,345;  297,366;  297,305
361,811;  327,345;  329,065;  331,875
361,890;  291,845;  292,595;  293,595
361,968;  318,945;  313,706;  316,715
362,046;  343,345;  335,296;  335,795
362,125;  335,245;  337,435;  340,865
362,203;  322,845;  314,635;  316,745
362,282;  322,845;  328,676;  334,675
362,360;  324,745;  318,315;  323,125
362,438;  315,945;  313,565;  317,495
362,517;  362,045;  357,725;  357,035
362,595;  345,945;  340,956;  345,025
362,673;  337,145;  334,576;  338,035
362,752;  329,045;  326,366;  329,445
362,830;  347,745;  343,155;  338,795
362,908;  328,145;  322,885;  326,315
362,986;  331,745;  333,595;  334,645
363,065;  331,345;  326,405;  330,985
363,143;  356,945;  359,875;  363,525
363,221;  313,845;  313,755;  319,675
363,299;  318,945;  315,845;  315,595
363,378;  327,145;  327,546;  328,495
363,456;  306,545;  304,326;  305,295
363,534;  327,745;  323,996;  327,895
363,612;  333,745;  327,546;  330,285
363,690;  342,345;  337,885;  341,915
363,769;  346,545;  349,336;  354,965
363,847;  333,545;  332,326;  333,935
363,925;  314,445;  303,095;  306,775
364,003;  362,045;  350,866;  351,845
364,081;  344,045;  336,345;  339,765
364,159;  338,045;  331,836;  334,695
364,237;  341,345;  341,276;  343,025
364,315;  339,945;  318,866;  320,765
364,393;  371,745;  350,935;  355,465
364,471;  339,345;  328,185;  329,975
364,549;  347,945;  333,026;  334,495
364,627;  349,745;  323,095;  327,065
364,705;  363,845;  311,135;  310,945
364,783;  437,745;  323,496;  332,235
364,861;  974,745;  331,396;  334,915
364,939; 3539,045;  314,086;  319,855
365,017;  810,145;  306,046;  310,735
365,095;  367,745;  322,116;  324,495
365,173;  382,845;  345,556;  349,605
365,251;  386,745;  341,535;  344,665
365,329;  527,745;  346,466;  345,195
365,407; 1159,945;  318,345;  321,385
365,485;  469,945;  344,826;  348,395
365,563;  354,545;  344,306;  346,815
365,641;  346,245;  331,896;  331,005
365,719;  349,845;  337,095;  336,965
365,796;  349,445;  334,926;  336,075
365,874;  353,945;  347,426;  349,165
365,952;  320,845;  309,516;  312,925
366,030;  355,445;  334,866;  333,525
366,108;  358,845;  326,345;  328,575
366,185;  617,745;  338,396;  343,695
366,263;  857,345;  334,646;  340,035
366,341;  389,345;  334,125;  339,925
366,419;  344,445;  331,535;  331,355
366,496;  349,345;  342,655;  345,225
366,574;  333,345;  325,826;  329,315
366,652;  351,745;  345,296;  349,635
366,730;  377,545;  365,475;  368,065
366,807;  335,545;  330,845;  334,945
366,885;  312,545;  321,135;  327,175
366,963;  334,745;  329,016;  331,635
367,040;  350,945;  345,815;  352,465
367,118;  323,045;  321,875;  325,205
367,196;  345,145;  341,896;  344,715
367,273;  345,745;  335,845;  338,245
367,351;  332,445;  328,155;  331,125
367,428;  367,245;  355,016;  356,915
367,506;  338,845;  329,225;  333,905
367,584;  363,045;  360,216;  363,085
367,661;  342,545;  341,785;  346,585
367,739;  332,745;  328,466;  334,835
367,816;  332,045;  320,345;  324,175
367,894;  334,045;  339,146;  345,755
367,971;  331,845;  329,885;  333,335
368,049;  348,245;  349,586;  353,435
368,126;  317,645;  314,625;  317,265
368,204;  349,945;  351,836;  352,775
368,281;  349,945;  353,225;  355,775
368,359;  343,045;  348,806;  354,965
368,436;  348,945;  342,385;  348,785
368,514;  345,745;  349,646;  351,035
368,591;  346,745;  343,486;  348,405
368,668;  349,945;  347,486;  351,455
368,746;  356,345;  358,556;  362,125
368,823;  343,045;  342,405;  345,515
368,901;  342,745;  339,046;  341,025
368,978;  354,945;  354,975;  361,925
369,055;  342,145;  343,826;  347,145
369,133;  367,645;  367,046;  368,725
369,210;  333,045;  339,206;  342,185
369,287;  373,145;  367,986;  371,205
369,365;  376,645;  368,896;  369,715
369,442;  342,645;  346,826;  351,135
369,519;  312,745;  306,396;  310,475
369,596;  365,845;  369,005;  372,695
369,674;  326,245;  336,526;  336,705
369,751;  371,145;  368,005;  369,405
369,828;  351,945;  350,366;  351,255
369,905;  353,045;  354,796;  358,705
369,983;  329,245;  329,826;  336,485
370,060;  337,345;  335,185;  336,165
370,137;  367,145;  371,595;  373,975
370,214;  348,545;  340,246;  340,845
370,291;  346,445;  347,845;  351,965
370,368;  347,545;  345,426;  349,675
370,446;  333,545;  335,716;  337,375
370,523;  330,645;  331,586;  338,615
370,600;  357,945;  350,706;  356,355
370,677;  358,145;  345,826;  349,525
370,754;  344,445;  341,706;  344,655
370,831;  343,045;  344,885;  347,665
370,908;  378,045;  368,556;  369,945
370,985;  333,345;  326,206;  327,885
371,062;  340,145;  346,635;  347,955
371,139;  356,945;  362,125;  364,815
371,216;  359,345;  357,496;  359,475
371,293;  353,345;  350,576;  350,305
371,370;  323,545;  328,806;  332,395
371,447;  355,145;  354,736;  355,835
371,524;  375,445;  374,685;  378,505
371,601;  375,945;  371,556;  374,285
371,678;  384,845;  374,306;  375,345
371,755;  353,145;  348,526;  348,275
371,832;  368,845;  374,526;  377,175
371,909;  345,045;  342,065;  344,605
371,986;  384,445;  376,505;  379,065
372,063;  347,145;  346,195;  348,745
372,140;  361,545;  354,056;  357,495
372,216;  357,145;  360,225;  360,935
372,293;  344,345;  341,945;  344,805
372,370;  378,545;  370,236;  372,635
372,447;  368,745;  361,646;  361,385
372,524;  361,645;  349,725;  352,115
372,601;  360,445;  353,236;  356,005
372,677;  342,445;  339,586;  339,035
372,754;  334,845;  347,516;  350,955
372,831;  357,845;  354,716;  356,955
372,908;  362,545;  368,496;  364,795
372,984;  343,545;  349,246;  356,035
373,061;  334,945;  342,046;  342,845
373,138;  340,545;  349,986;  354,465
373,215;  342,445;  345,155;  346,585
373,291;  354,545;  347,556;  353,415
373,368;  350,245;  353,516;  357,375
373,445;  347,045;  348,285;  348,395
373,521;  356,845;  349,216;  353,935
373,598;  346,745;  341,766;  343,845
373,675;  332,845;  332,646;  334,115
373,751;  356,445;  345,375;  354,195
373,828;  340,445;  341,076;  346,375
373,904;  384,245;  387,225;  391,935
373,981;  329,945;  332,516;  333,585
374,057;  354,145;  353,306;  355,945
374,134;  331,745;  331,706;  334,435
374,211;  340,445;  348,826;  351,835
374,287;  343,045;  338,565;  339,035
374,364;  356,445;  362,426;  365,335
374,440;  325,745;  319,035;  321,205
374,517;  371,945;  361,625;  366,995
374,593;  326,245;  326,896;  326,865
374,670;  336,845;  340,095;  342,905
374,746;  355,245;  346,915;  349,135
374,823;  356,545;  369,255;  368,775
374,899;  361,245;  366,836;  366,475
374,975;  338,345;  336,035;  341,495
375,052;  325,645;  319,776;  326,175
375,128;  325,145;  325,956;  331,675
375,205;  350,445;  353,665;  355,605
375,281;  330,445;  337,296;  336,395
375,357;  366,945;  361,026;  364,245
375,434;  340,745;  331,986;  338,045
375,510;  360,645;  347,755;  353,175
375,586;  355,745;  347,486;  349,845
375,663;  327,645;  321,926;  323,515
375,739;  357,045;  355,716;  358,675
375,815;  344,445;  346,366;  346,765
375,892;  339,245;  344,516;  348,555
375,968;  337,645;  331,605;  336,855
376,044;  332,445;  335,866;  339,405
376,120;  332,845;  332,535;  339,615
376,197;  347,045;  348,466;  352,185
376,273;  343,945;  340,516;  341,095
376,349;  378,445;  378,366;  379,125
376,425;  372,445;  362,935;  364,425
376,501;  343,245;  344,225;  347,555
376,578;  359,145;  362,885;  363,255
376,654;  387,045;  383,866;  382,945
376,730;  352,245;  360,266;  364,005
376,806;  368,045;  375,185;  376,845
376,882;  370,845;  377,176;  378,355
376,958;  375,345;  376,706;  373,325
377,034;  318,745;  319,695;  317,895
377,111;  376,845;  368,826;  369,285
377,187;  391,745;  390,845;  391,825
377,263;  384,545;  383,885;  384,725
377,339;  334,245;  341,445;  346,375
377,415;  359,145;  366,366;  365,685
377,491;  340,445;  342,885;  347,505
377,567;  355,345;  359,755;  360,685
377,643;  385,345;  380,076;  378,785
377,719;  373,745;  363,706;  367,845
377,795;  337,945;  345,725;  349,165
377,871;  367,545;  367,866;  370,355
377,947;  354,845;  348,236;  351,215
378,023;  351,745;  345,855;  349,075
378,099;  345,745;  349,035;  350,465
378,174;  367,245;  374,176;  374,825
378,250;  363,045;  363,105;  366,955
378,326;  382,145;  366,255;  370,045
378,402;  363,745;  357,685;  360,315
378,478;  368,845;  361,605;  365,295
378,554;  377,545;  370,396;  375,075
378,630;  358,445;  365,225;  365,285
378,706;  353,845;  358,076;  357,335
378,781;  390,945;  390,875;  394,875
378,857;  355,145;  363,185;  366,505
378,933;  357,945;  360,315;  365,855
379,009;  355,945;  351,426;  351,035
379,085;  385,545;  393,826;  391,725
379,160;  381,645;  377,246;  378,485
379,236;  379,045;  374,195;  376,655
379,312;  354,545;  359,915;  361,725
379,387;  349,045;  354,486;  355,105
379,463;  357,545;  359,836;  363,685
379,539;  369,345;  370,475;  373,395
379,615;  361,445;  359,056;  358,495
379,690;  399,345;  395,035;  398,755
379,766;  376,545;  373,276;  379,335
379,842;  382,745;  391,105;  391,375
379,917;  398,045;  380,935;  388,225
379,993;  369,945;  368,366;  373,385
380,068;  366,445;  359,236;  361,755
380,144;  386,145;  381,086;  383,405
380,220;  389,345;  382,086;  386,535
380,295;  359,045;  353,005;  355,035
380,371;  371,945;  359,935;  361,545
380,446;  385,345;  377,165;  381,125
380,522;  348,845;  348,766;  349,425
380,597;  363,245;  360,486;  359,965
380,673;  403,345;  390,456;  394,425
380,748;  371,545;  358,046;  358,445
380,824;  368,645;  367,676;  369,935
380,899;  389,845;  386,216;  388,425
380,975;  372,545;  365,475;  366,905
381,050;  354,145;  352,806;  352,825
381,126;  372,445;  370,526;  373,695
381,201;  402,345;  398,806;  402,495
381,277;  377,745;  373,435;  374,795
381,352;  389,145;  388,105;  390,855
381,427;  374,545;  372,586;  376,025
381,503;  386,245;  378,896;  379,385
381,578;  358,445;  360,605;  365,515
381,653;  368,745;  368,776;  372,375
381,729;  359,645;  361,535;  360,945
381,804;  369,845;  367,475;  368,805
381,879;  388,345;  383,306;  386,055
381,955;  362,945;  354,396;  356,545
382,030;  353,945;  356,556;  357,225
382,105;  375,745;  375,586;  372,555
382,181;  371,945;  367,466;  371,255
382,256;  379,645;  378,116;  374,765
382,331;  375,745;  367,216;  371,745
382,406;  347,445;  353,266;  357,745
382,482;  364,145;  361,315;  357,655
382,557;  372,245;  363,526;  366,745
382,632;  369,345;  370,595;  371,585
382,707;  366,445;  361,135;  365,615
382,782;  365,745;  361,516;  366,275
382,857;  359,945;  358,996;  361,035
382,933;  342,745;  351,776;  352,995
383,008;  340,445;  344,065;  345,165
383,083;  384,545;  376,866;  379,215
383,158;  378,445;  378,866;  381,615
383,233;  362,645;  362,385;  363,105
383,308;  361,145;  359,875;  362,675
383,383;  390,145;  389,445;  391,785
383,458;  353,345;  361,135;  360,475
383,533;  335,545;  342,456;  344,625
383,608;  394,045;  387,885;  390,385
383,683;  392,645;  385,046;  389,585
383,758;  382,945;  380,285;  380,925
383,833;  375,345;  370,296;  371,015
383,908;  345,045;  343,206;  342,165
383,983;  348,945;  346,296;  350,755
384,058;  361,245;  355,246;  357,655
384,133;  368,045;  368,185;  368,575
384,208;  374,045;  376,796;  379,565
384,283;  359,245;  348,736;  351,825
384,358;  385,045;  381,845;  387,485
384,433;  361,445;  357,496;  357,355
384,508;  370,745;  368,966;  373,895
384,583;  375,845;  373,725;  375,265
384,658;  373,245;  367,915;  371,275
384,732;  347,745;  339,456;  339,705
384,807;  366,045;  366,935;  369,005
384,882;  379,345;  371,246;  373,145
384,957;  374,945;  368,095;  371,985
385,032;  372,645;  375,426;  376,555
385,106;  370,645;  370,216;  371,515
385,181;  358,545;  351,385;  357,155
385,256;  359,445;  363,565;  366,745
385,331;  365,845;  371,935;  373,255
385,405;  378,945;  380,975;  381,445
385,480;  364,245;  365,695;  366,715
385,555;  402,145;  399,306;  400,405
385,630;  402,345;  390,956;  395,935
385,704;  383,645;  374,056;  377,105
385,779;  368,945;  364,405;  364,855
385,854;  374,445;  368,746;  369,975
385,928;  360,545;  363,016;  365,315
386,003;  397,545;  402,586;  405,115
386,078;  375,345;  372,466;  374,995
386,152;  398,645;  401,456;  401,815
386,227;  356,145;  357,646;  361,225
386,301;  381,345;  378,725;  380,385
386,376;  355,545;  348,695;  355,015
386,450;  382,945;  378,616;  381,145
386,525;  376,645;  373,556;  377,655
386,600;  388,945;  385,746;  385,925
386,674;  356,345;  364,076;  367,315
386,749;  384,045;  375,095;  381,315
386,823;  375,345;  377,435;  382,095
386,898;  390,345;  379,766;  380,535
386,972;  386,745;  380,966;  385,985
387,047;  376,745;  369,776;  374,355
387,121;  378,545;  379,695;  380,335
387,195;  361,245;  357,875;  359,895
387,270;  381,345;  385,625;  385,415
387,344;  405,345;  404,405;  407,055
387,419;  396,945;  385,665;  393,195
387,493;  383,445;  377,776;  379,825
387,567;  352,245;  355,005;  358,475
387,642;  401,345;  403,586;  405,945
387,716;  370,845;  369,565;  372,245
387,790;  371,645;  367,706;  371,225
387,865;  381,945;  372,806;  373,715
387,939;  408,945;  403,005;  404,415
388,013;  392,845;  384,806;  386,145
388,088;  369,345;  368,655;  370,085
388,162;  368,045;  370,135;  371,835
388,236;  381,945;  372,456;  375,275
388,310;  370,345;  361,966;  364,475
388,385;  391,145;  397,185;  400,845
388,459;  382,145;  379,996;  380,235
388,533;  362,145;  363,676;  362,565
388,607;  365,645;  366,776;  365,955
388,682;  374,145;  374,806;  375,745
388,756;  358,745;  355,035;  360,825
388,830;  394,645;  390,255;  394,075
388,904;  374,545;  378,276;  385,365
388,978;  371,145;  369,535;  370,165
389,052;  380,645;  375,396;  377,225
389,126;  376,645;  370,435;  376,195
389,200;  392,045;  372,665;  377,205
389,275;  374,945;  369,266;  367,695
389,349;  372,145;  374,695;  373,065
389,423;  364,745;  369,565;  369,375
389,497;  378,945;  380,966;  383,775
389,571;  368,245;  368,665;  370,175
389,645;  384,945;  376,806;  379,805
389,719;  370,545;  369,396;  372,955
389,793;  347,445;  346,576;  348,725
389,867;  404,445;  398,035;  402,955
389,941;  371,145;  375,375;  377,215
390,015;  367,245;  361,135;  364,515
390,089;  363,945;  360,426;  362,085
390,163;  373,545;  372,456;  375,935
390,237;  370,045;  375,435;  379,295
390,310;  377,145;  379,276;  382,155
390,384;  393,745;  376,546;  383,625
390,458;  408,145;  400,826;  403,825
390,532;  392,945;  383,496;  386,725
390,606;  367,545;  365,945;  369,265
390,680;  366,945;  366,466;  368,115
390,754;  366,245;  366,385;  368,915
390,827;  393,245;  388,276;  392,645
390,901;  402,045;  391,855;  396,215
390,975;  367,645;  368,905;  370,295
391,049;  368,645;  366,366;  364,315
391,123;  365,745;  362,685;  363,545
391,196;  371,445;  367,635;  367,855
391,270;  383,345;  378,426;  377,835
391,344;  357,545;  360,056;  359,585
391,418;  370,545;  372,975;  372,155
391,491;  364,645;  362,655;  363,995
391,565;  361,545;  362,065;  366,105
391,639;  396,745;  394,345;  397,875
391,712;  385,045;  385,815;  384,375
391,786;  382,345;  382,646;  386,785
391,860;  370,345;  369,385;  370,925
391,933;  373,745;  369,935;  371,115
392,007;  378,945;  371,355;  380,875
392,081;  401,645;  396,456;  399,955
392,154;  387,345;  377,845;  383,895
392,228;  398,745;  391,366;  394,685
392,301;  386,345;  376,266;  381,275
392,375;  385,045;  386,076;  389,995
392,448;  381,445;  379,516;  384,445
392,522;  377,845;  376,236;  379,965
392,595;  371,745;  370,105;  374,245
392,669;  379,545;  376,116;  379,675
392,742;  390,845;  390,975;  396,915
392,816;  402,545;  397,296;  400,205
392,889;  393,645;  392,746;  396,605
392,963;  404,145;  409,095;  409,745
393,036;  387,645;  385,345;  386,785
393,110;  395,045;  391,155;  393,885
393,183;  403,745;  400,836;  405,685
393,257;  415,945;  415,456;  417,745
393,330;  370,545;  365,845;  369,745
393,403;  401,745;  390,486;  395,585
393,477;  365,745;  355,845;  358,875
393,550;  390,045;  390,306;  395,545
393,623;  379,545;  388,396;  388,295
393,697;  401,045;  406,056;  406,835
393,770;  378,745;  376,556;  379,065
393,843;  409,745;  402,996;  406,915
393,917;  383,045;  394,216;  398,485
393,990;  412,445;  409,996;  410,125
394,063;  385,045;  386,855;  392,225
394,136;  401,045;  388,635;  391,675
394,210;  395,845;  393,336;  395,655
394,283;  415,045;  402,785;  407,175
394,356;  395,545;  399,165;  399,175
394,429;  402,145;  396,935;  398,825
394,502;  389,045;  382,016;  383,895
394,576;  414,245;  414,125;  414,715
394,649;  381,445;  378,776;  377,865
394,722;  408,545;  400,896;  403,785
394,795;  408,345;  408,306;  413,185
394,868;  382,045;  384,135;  385,985
394,941;  371,445;  376,435;  375,265
395,014;  420,345;  417,056;  420,205
395,088;  392,945;  398,956;  399,175
395,161;  402,045;  395,466;  398,685
395,234;  418,945;  409,236;  410,735
395,307;  397,645;  402,236;  405,525
395,380;  379,445;  384,736;  385,325
395,453;  438,345;  436,845;  437,285
395,526;  406,945;  408,385;  412,495
395,599;  431,245;  426,926;  430,645
395,672;  400,245;  394,586;  394,895
395,745;  417,145;  417,125;  421,075
395,818;  375,545;  376,306;  378,615
395,891;  383,545;  385,635;  387,695
395,964;  411,445;  415,896;  414,885
396,036;  387,045;  387,486;  384,175
396,109;  394,945;  392,076;  395,785
396,182;  396,045;  396,766;  399,545
396,255;  398,645;  399,225;  398,845
396,328;  413,445;  410,065;  411,075
396,401;  370,645;  370,746;  371,295
396,474;  382,345;  381,086;  381,505
396,547;  398,245;  397,046;  400,645
396,619;  396,745;  390,755;  390,525
396,692;  406,045;  404,866;  411,355
396,765;  364,745;  370,616;  372,985
396,838;  400,745;  388,225;  388,295
396,911;  377,845;  371,266;  373,155
396,983;  393,145;  392,496;  392,385
397,056;  373,345;  372,355;  374,095
397,129;  389,045;  387,796;  389,615
397,201;  392,345;  391,556;  389,605
397,274;  390,045;  385,366;  389,335
397,347;  361,145;  363,345;  363,665
397,420;  382,245;  384,605;  387,195
397,492;  392,845;  388,296;  388,685
397,565;  381,645;  375,915;  379,595
397,637;  367,845;  369,366;  372,085
397,710;  352,945;  351,586;  350,295
397,783;  409,745;  412,855;  414,805
397,855;  343,945;  345,345;  347,055
397,928;  368,845;  368,336;  371,095
398,000;  393,345;  395,866;  396,635
398,073;  395,045;  386,546;  384,745
398,146;  369,945;  376,706;  377,295
398,218;  391,645;  390,255;  393,135
398,291;  389,445;  385,806;  387,915
398,363;  383,245;  381,755;  384,505
398,436;  368,345;  369,855;  374,675
398,508;  381,945;  383,266;  385,345
398,581;  376,945;  378,206;  380,565
398,653;  379,945;  374,255;  373,825
398,726;  380,145;  378,535;  383,385
398,798;  379,745;  383,306;  387,885
398,870;  399,245;  391,116;  396,905
398,943;  367,245;  366,236;  369,775
399,015;  368,045;  365,676;  368,815
399,088;  388,345;  389,655;  388,435
399,160;  365,445;  368,076;  368,815
399,232;  354,145;  350,405;  352,095
399,305;  378,045;  368,435;  372,935
399,377;  374,845;  377,905;  377,535
399,449;  381,045;  386,246;  388,735
399,522;  433,845;  421,875;  424,965
399,594;  368,345;  364,576;  365,315
399,666;  386,445;  382,625;  385,235
399,738;  372,045;  373,336;  375,225
399,811;  378,845;  376,736;  377,025
399,883;  392,545;  386,105;  388,295
399,955;  393,045;  389,855;  389,195
400,027;  346,445;  345,945;  349,545
400,100;  399,045;  407,366;  409,275
400,172;  348,645;  348,296;  349,645
400,244;  378,145;  378,225;  381,195
400,316;  390,745;  393,016;  393,505
400,388;  397,945;  389,385;  393,005
400,460;  367,245;  359,306;  364,605
400,532;  356,845;  350,826;  351,835
400,605;  389,445;  377,736;  384,975
400,677;  399,645;  402,285;  404,675
400,749;  398,945;  395,685;  398,125
400,821;  382,845;  385,956;  388,105
400,893;  379,445;  379,445;  382,305
400,965;  387,545;  386,755;  392,785
401,037;  383,445;  387,565;  392,525
401,109;  376,145;  370,725;  373,835
401,181;  387,245;  380,716;  385,485

