pru
Integration time [ms]:   0,150
Averaging Nr. [scans]: 30
Smoothing Nr. [pixels]: 0
Data measured with spectrometer [name]: 7416147SP
Wave   ;Sample   ;Dark     ;Reference
[nm]   ;[counts] ;[counts] ;[counts] 

230,218;  297,741;  290,315;  293,845
230,311;  326,108;  319,885;  318,565
230,404;  309,574;  309,855;  312,875
230,497;  316,641;  317,385;  315,715
230,591;  339,241;  333,426;  335,355
230,684;  327,741;  326,486;  329,355
230,777;  317,541;  311,736;  314,765
230,870;  311,508;  313,326;  316,955
230,964;  314,608;  310,885;  314,745
231,057;  341,874;  342,496;  343,475
231,150;  337,908;  331,695;  332,715
231,243;  333,874;  330,635;  332,775
231,336;  333,807;  331,375;  331,335
231,430;  320,774;  316,496;  317,715
231,523;  332,841;  324,516;  326,785
231,616;  308,541;  305,445;  309,685
231,709;  343,974;  328,065;  330,025
231,802;  313,174;  300,945;  301,885
231,895;  317,508;  299,836;  300,315
231,988;  327,874;  315,655;  318,535
232,082;  311,741;  298,155;  302,425
232,175;  312,641;  302,155;  306,175
232,268;  315,941;  301,266;  305,345
232,361;  321,774;  304,806;  307,515
232,454;  339,441;  322,396;  323,025
232,547;  336,041;  318,716;  322,655
232,640;  310,207;  296,766;  294,035
232,733;  332,108;  314,116;  323,045
232,826;  304,641;  288,915;  295,035
232,919;  330,408;  313,826;  312,665
233,012;  305,074;  293,646;  292,775
233,105;  317,941;  294,766;  298,815
233,199;  317,207;  299,875;  304,045
233,292;  308,608;  293,475;  296,235
233,385;  273,074;  263,426;  262,225
233,478;  305,541;  293,885;  295,685
233,571;  333,108;  324,586;  327,675
233,664;  325,074;  305,996;  308,435
233,757;  298,274;  280,796;  281,395
233,850;  296,807;  282,255;  285,825
233,943;  306,108;  290,896;  292,195
234,035;  312,707;  300,576;  302,355
234,128;  298,707;  281,836;  283,945
234,221;  312,408;  297,665;  298,245
234,314;  322,341;  304,915;  311,975
234,407;  325,908;  302,935;  309,075
234,500;  300,807;  277,625;  281,875
234,593;  298,108;  287,095;  285,735
234,686;  309,307;  293,746;  293,765
234,779;  304,874;  291,266;  293,165
234,872;  297,408;  281,806;  281,565
234,965;  305,408;  292,806;  290,795
235,058;  293,174;  274,155;  276,215
235,150;  310,974;  285,776;  290,805
235,243;  298,674;  282,736;  284,425
235,336;  320,941;  300,695;  304,545
235,429;  289,008;  273,646;  272,515
235,522;  350,274;  330,996;  335,445
235,615;  280,108;  262,276;  265,145
235,707;  295,207;  282,415;  282,335
235,800;  305,274;  289,815;  290,515
235,893;  300,508;  289,956;  292,955
235,986;  319,241;  298,266;  299,325
236,079;  302,574;  286,586;  291,125
236,171;  287,241;  270,725;  271,865
236,264;  321,307;  312,635;  313,275
236,357;  307,441;  290,986;  293,865
236,450;  328,941;  315,225;  317,215
236,542;  285,141;  267,065;  272,575
236,635;  330,841;  313,546;  316,385
236,728;  307,541;  285,516;  288,115
236,821;  297,741;  280,165;  283,715
236,913;  293,441;  277,896;  276,315
237,006;  291,841;  271,605;  275,435
237,099;  299,441;  283,896;  285,575
237,191;  318,374;  298,796;  300,225
237,284;  283,408;  267,896;  272,995
237,377;  313,174;  294,725;  297,495
237,470;  304,508;  285,415;  287,875
237,562;  291,608;  276,866;  275,785
237,655;  336,441;  320,945;  324,565
237,747;  311,274;  292,695;  295,845
237,840;  327,674;  313,086;  314,435
237,933;  310,408;  300,445;  301,555
238,025;  315,908;  301,415;  301,595
238,118;  300,441;  282,456;  287,755
238,211;  285,274;  268,155;  272,375
238,303;  282,207;  272,296;  273,415
238,396;  283,541;  268,065;  271,945
238,488;  307,374;  292,625;  291,075
238,581;  306,307;  287,855;  289,445
238,673;  306,207;  285,766;  286,865
238,766;  302,008;  282,635;  283,185
238,859;  285,608;  273,586;  276,105
238,951;  300,474;  281,095;  282,835
239,044;  295,774;  276,496;  279,525
239,136;  286,774;  269,035;  271,705
239,229;  297,008;  280,665;  283,435
239,321;  295,908;  271,255;  276,105
239,414;  307,074;  289,875;  292,345
239,506;  300,141;  284,625;  290,655
239,599;  332,941;  316,315;  315,935
239,691;  301,274;  287,945;  287,755
239,784;  317,441;  301,926;  304,175
239,876;  311,008;  295,005;  294,715
239,969;  306,441;  284,426;  288,635
240,061;  293,774;  269,505;  272,655
240,153;  297,974;  276,776;  278,405
240,246;  298,674;  287,635;  287,925
240,338;  325,041;  315,285;  314,405
240,431;  287,374;  268,896;  270,455
240,523;  283,841;  269,315;  270,665
240,615;  313,174;  299,086;  301,495
240,708;  324,207;  309,945;  312,145
240,800;  299,641;  286,956;  289,175
240,893;  288,241;  272,216;  274,965
240,985;  309,274;  286,116;  289,995
241,077;  283,041;  269,866;  271,905
241,170;  313,641;  300,355;  300,805
241,262;  308,608;  293,695;  290,825
241,354;  273,474;  252,305;  253,985
241,447;  298,774;  281,326;  283,905
241,539;  281,207;  266,746;  270,745
241,631;  329,707;  314,366;  317,275
241,724;  278,341;  259,135;  260,655
241,816;  295,707;  279,385;  281,545
241,908;  297,008;  275,056;  280,445
242,000;  295,041;  277,625;  279,505
242,093;  303,608;  277,725;  280,745
242,185;  296,641;  277,736;  277,535
242,277;  297,041;  274,695;  277,115
242,369;  298,341;  282,146;  286,335
242,462;  294,474;  274,405;  274,215
242,554;  299,908;  277,146;  281,105
242,646;  306,408;  283,146;  286,575
242,738;  323,108;  303,255;  307,195
242,830;  277,141;  259,026;  260,415
242,923;  314,541;  297,035;  299,015
243,015;  281,741;  268,655;  266,675
243,107;  284,608;  267,676;  271,255
243,199;  290,674;  276,345;  278,365
243,291;  293,207;  272,125;  276,215
243,383;  273,441;  254,826;  256,465
243,476;  282,874;  269,435;  268,005
243,568;  297,541;  280,915;  284,885
243,660;  295,174;  273,385;  279,575
243,752;  297,174;  279,796;  287,275
243,844;  316,574;  300,766;  302,705
243,936;  298,508;  291,956;  293,555
244,028;  321,774;  304,796;  307,475
244,120;  268,707;  254,346;  255,525
244,212;  306,841;  293,826;  293,755
244,305;  281,408;  268,496;  267,935
244,397;  304,141;  289,165;  291,675
244,489;  314,707;  304,276;  307,925
244,581;  310,207;  299,255;  300,795
244,673;  301,474;  281,806;  283,225
244,765;  305,908;  286,035;  290,565
244,857;  296,841;  284,986;  287,335
244,949;  305,074;  283,956;  284,945
245,041;  268,441;  250,865;  255,005
245,133;  312,207;  293,695;  296,625
245,225;  297,341;  277,915;  280,695
245,317;  296,807;  289,456;  289,025
245,409;  287,307;  263,755;  269,375
245,501;  305,741;  288,496;  293,045
245,593;  300,941;  286,255;  290,055
245,685;  300,608;  285,405;  288,735
245,776;  297,441;  285,945;  287,235
245,868;  285,574;  271,276;  272,565
245,960;  274,608;  265,875;  263,405
246,052;  322,074;  310,766;  310,445
246,144;  305,408;  294,165;  294,205
246,236;  296,408;  283,576;  283,565
246,328;  304,707;  291,345;  293,965
246,420;  292,508;  279,746;  280,855
246,512;  324,074;  308,236;  310,455
246,604;  298,341;  282,526;  286,825
246,695;  282,274;  273,345;  272,135
246,787;  312,807;  293,526;  301,145
246,879;  304,841;  292,716;  297,145
246,971;  313,541;  299,276;  300,965
247,063;  292,141;  273,255;  278,605
247,155;  312,441;  294,516;  297,195
247,246;  294,541;  283,266;  283,715
247,338;  307,841;  288,116;  294,265
247,430;  313,908;  299,945;  303,475
247,522;  312,207;  297,546;  300,555
247,613;  313,874;  296,586;  299,675
247,705;  308,374;  286,896;  288,445
247,797;  322,774;  305,776;  307,475
247,889;  324,707;  294,706;  295,475
247,980;  324,674;  285,676;  291,995
248,072;  331,108;  282,845;  285,895
248,164;  346,974;  293,216;  298,385
248,256;  300,807;  271,366;  274,105
248,347;  331,441;  309,785;  311,065
248,439;  303,174;  283,165;  282,675
248,531;  322,008;  303,885;  304,835
248,622;  325,641;  307,206;  308,325
248,714;  290,374;  276,945;  278,365
248,806;  313,141;  293,655;  298,015
248,897;  305,707;  291,535;  292,985
248,989;  279,741;  263,956;  263,855
249,081;  304,474;  283,355;  284,905
249,172;  304,941;  289,926;  295,135
249,264;  289,008;  272,076;  273,435
249,356;  287,307;  269,326;  273,745
249,447;  296,608;  282,176;  284,525
249,539;  301,008;  283,086;  284,645
249,630;  306,508;  289,875;  288,495
249,722;  330,141;  313,276;  315,395
249,813;  296,974;  280,496;  284,125
249,905;  310,774;  289,426;  293,665
249,997;  303,374;  281,445;  280,615
250,088;  303,141;  282,255;  288,985
250,180;  309,674;  283,695;  284,575
250,271;  302,008;  281,195;  280,335
250,363;  338,074;  319,105;  320,755
250,454;  294,074;  273,035;  275,615
250,546;  315,408;  285,926;  289,415
250,637;  289,807;  264,445;  261,845
250,729;  293,474;  266,505;  269,555
250,820;  323,274;  289,915;  292,965
250,912;  290,474;  262,355;  267,085
251,003;  300,774;  278,396;  280,475
251,095;  305,874;  282,086;  284,555
251,186;  295,908;  271,415;  274,775
251,277;  297,941;  271,986;  275,265
251,369;  305,641;  275,975;  275,105
251,460;  297,008;  271,456;  273,815
251,552;  312,741;  278,475;  279,655
251,643;  302,008;  268,796;  267,375
251,735;  311,941;  265,246;  267,375
251,826;  303,641;  258,016;  263,245
251,917;  330,408;  278,035;  279,115
252,009;  325,241;  273,396;  275,605
252,100;  331,374;  281,426;  283,345
252,191;  353,574;  289,996;  292,015
252,283;  343,041;  265,095;  267,705
252,374;  371,408;  278,296;  278,375
252,465;  391,341;  295,405;  298,605
252,557;  389,008;  283,576;  286,365
252,648;  396,408;  265,146;  268,635
252,739;  424,941;  280,516;  282,125
252,831;  419,674;  270,836;  280,355
252,922;  458,207;  282,296;  280,045
253,013;  505,774;  273,956;  284,285
253,104;  560,341;  270,076;  270,335
253,196;  671,841;  271,366;  271,175
253,287;  819,574;  281,836;  277,135
253,378; 1191,174;  276,276;  277,975
253,469; 3719,841;  272,385;  276,445
253,561;21031,674;  273,496;  278,855
253,652;41594,773;  282,266;  280,015
253,743; 6476,674;  276,216;  280,985
253,834;  618,441;  259,146;  265,875
253,926;  495,807;  262,605;  267,485
254,017;  472,774;  284,236;  290,235
254,108;  448,941;  291,836;  290,565
254,199;  433,908;  285,326;  291,185
254,290;  431,674;  312,725;  313,865
254,381;  415,041;  287,076;  291,155
254,472;  417,974;  291,935;  300,495
254,564;  412,641;  312,766;  307,565
254,655;  390,541;  304,755;  308,105
254,746;  344,207;  264,896;  264,025
254,837;  383,674;  293,105;  298,435
254,928;  351,807;  266,836;  271,975
255,019;  362,174;  283,505;  286,805
255,110;  368,474;  300,165;  301,665
255,201;  349,041;  281,155;  287,655
255,292;  382,741;  312,706;  316,275
255,383;  348,974;  275,785;  275,725
255,474;  340,608;  273,306;  273,095
255,566;  356,641;  283,926;  286,645
255,657;  344,408;  298,556;  302,445
255,748;  317,508;  271,415;  278,125
255,839;  324,841;  280,695;  282,485
255,930;  328,641;  287,866;  289,735
256,021;  337,374;  298,845;  298,115
256,112;  319,774;  278,456;  278,735
256,203;  353,374;  311,866;  313,365
256,294;  325,508;  293,496;  299,575
256,384;  309,374;  270,565;  275,715
256,475;  314,807;  290,996;  294,595
256,566;  310,908;  281,246;  287,825
256,657;  299,174;  278,945;  278,915
256,748;  298,174;  281,285;  284,675
256,839;  294,508;  274,426;  273,555
256,930;  300,474;  279,165;  283,055
257,021;  322,374;  304,155;  306,465
257,112;  323,874;  304,926;  309,235
257,203;  276,974;  258,445;  259,825
257,294;  274,774;  254,465;  262,175
257,385;  312,241;  288,526;  294,205
257,475;  296,441;  279,135;  278,545
257,566;  310,641;  287,586;  292,255
257,657;  294,041;  269,595;  270,025
257,748;  283,707;  275,935;  276,095
257,839;  301,008;  287,915;  286,025
257,930;  308,041;  285,736;  290,395
258,020;  283,341;  269,716;  271,535
258,111;  281,274;  262,225;  263,255
258,202;  306,674;  288,326;  289,935
258,293;  299,674;  284,655;  285,305
258,384;  319,741;  305,595;  307,665
258,474;  305,374;  288,676;  291,995
258,565;  286,274;  271,635;  273,435
258,656;  305,408;  292,966;  295,145
258,747;  285,441;  271,475;  275,425
258,837;  284,741;  274,246;  273,695
258,928;  293,641;  275,785;  278,605
259,019;  281,341;  268,415;  270,595
259,109;  283,241;  269,685;  269,425
259,200;  300,441;  286,105;  289,815
259,291;  283,408;  269,975;  271,655
259,381;  304,441;  293,026;  295,635
259,472;  308,941;  295,796;  296,545
259,563;  311,941;  303,065;  305,845
259,653;  289,674;  278,296;  281,385
259,744;  278,608;  268,826;  267,735
259,835;  315,441;  300,975;  302,815
259,925;  283,941;  271,505;  277,075
260,016;  295,908;  286,746;  287,585
260,107;  272,341;  258,035;  264,715
260,197;  293,041;  283,975;  286,325
260,288;  292,141;  274,565;  279,155
260,378;  279,207;  267,195;  271,275
260,469;  300,774;  285,915;  288,765
260,560;  279,941;  266,146;  269,495
260,650;  285,807;  271,736;  275,665
260,741;  287,074;  276,366;  279,035
260,831;  283,274;  272,855;  275,905
260,922;  276,241;  266,206;  269,545
261,012;  283,108;  277,665;  278,255
261,103;  310,174;  301,785;  302,875
261,193;  316,807;  302,086;  303,915
261,284;  276,807;  271,806;  273,005
261,374;  305,207;  296,385;  303,855
261,465;  293,974;  287,755;  289,435
261,555;  296,074;  282,255;  280,715
261,646;  297,374;  292,475;  294,375
261,736;  292,807;  287,435;  290,535
261,827;  293,441;  283,716;  284,935
261,917;  318,608;  311,736;  311,595
262,007;  295,908;  283,986;  288,075
262,098;  295,174;  289,445;  287,725
262,188;  335,508;  326,655;  333,475
262,279;  312,508;  300,185;  299,795
262,369;  298,074;  286,285;  289,225
262,459;  298,874;  288,246;  290,365
262,550;  304,674;  303,266;  301,565
262,640;  278,008;  273,005;  276,555
262,731;  301,441;  300,935;  299,335
262,821;  314,341;  310,535;  312,255
262,911;  306,241;  297,875;  298,285
263,002;  295,374;  289,625;  290,825
263,092;  313,574;  303,956;  306,295
263,182;  295,041;  284,806;  285,755
263,273;  292,374;  285,426;  289,395
263,363;  308,374;  300,746;  299,385
263,453;  272,041;  267,375;  268,605
263,543;  297,741;  289,815;  289,615
263,634;  273,574;  266,516;  266,365
263,724;  304,241;  292,586;  293,065
263,814;  314,508;  308,706;  308,885
263,904;  287,108;  281,966;  285,905
263,995;  325,774;  322,276;  322,325
264,085;  306,608;  295,855;  294,575
264,175;  301,241;  296,706;  296,385
264,265;  323,341;  321,105;  321,865
264,356;  279,841;  270,466;  274,385
264,446;  315,974;  308,996;  307,575
264,536;  307,108;  294,026;  297,515
264,626;  323,741;  318,486;  320,175
264,716;  304,574;  298,435;  303,275
264,806;  321,674;  308,776;  310,415
264,897;  265,908;  258,135;  258,615
264,987;  314,408;  303,535;  304,475
265,077;  324,508;  287,046;  292,545
265,167;  378,608;  310,216;  311,575
265,257;  340,674;  290,445;  290,535
265,347;  327,207;  294,336;  295,795
265,437;  325,008;  296,176;  300,635
265,527;  312,508;  293,155;  294,765
265,617;  287,008;  279,875;  285,145
265,708;  321,274;  314,216;  314,825
265,798;  310,974;  305,415;  307,055
265,888;  309,274;  300,716;  305,545
265,978;  298,341;  294,496;  295,825
266,068;  319,174;  310,155;  315,855
266,158;  302,941;  294,005;  297,205
266,248;  281,241;  274,016;  276,865
266,338;  319,974;  313,035;  314,815
266,428;  305,207;  300,635;  302,655
266,518;  321,307;  311,405;  315,615
266,608;  307,041;  299,725;  294,215
266,698;  283,741;  273,586;  276,245
266,788;  276,974;  274,456;  277,745
266,878;  335,374;  325,776;  330,865
266,968;  312,441;  306,725;  309,425
267,058;  304,508;  297,375;  302,895
267,147;  306,841;  301,845;  302,905
267,237;  295,074;  291,815;  295,765
267,327;  294,441;  286,755;  287,895
267,417;  308,541;  301,225;  303,385
267,507;  302,241;  292,176;  294,215
267,597;  292,408;  282,026;  283,655
267,687;  291,408;  285,165;  287,755
267,777;  289,541;  283,986;  284,615
267,867;  318,608;  312,125;  312,585
267,956;  309,608;  302,466;  304,005
268,046;  308,341;  305,466;  310,865
268,136;  306,874;  296,875;  298,905
268,226;  282,574;  274,885;  274,965
268,316;  291,608;  280,766;  280,845
268,406;  301,274;  289,516;  287,595
268,495;  289,408;  284,415;  287,935
268,585;  310,741;  306,716;  309,605
268,675;  292,874;  284,336;  285,535
268,765;  304,274;  296,355;  300,115
268,854;  290,608;  285,935;  286,715
268,944;  298,707;  291,646;  293,805
269,034;  295,141;  283,986;  289,715
269,124;  292,741;  287,216;  290,705
269,213;  288,174;  286,336;  285,525
269,303;  294,474;  290,466;  288,585
269,393;  304,174;  299,845;  298,345
269,483;  300,374;  300,966;  302,735
269,572;  289,707;  282,875;  284,665
269,662;  286,741;  276,105;  283,315
269,752;  316,307;  312,736;  315,705
269,841;  271,074;  266,046;  269,455
269,931;  286,874;  281,586;  283,075
270,021;  307,207;  300,766;  304,675
270,110;  292,008;  285,695;  288,925
270,200;  298,174;  291,665;  299,445
270,289;  288,608;  280,785;  281,105
270,379;  311,207;  301,466;  302,775
270,469;  296,974;  290,556;  289,955
270,558;  304,874;  303,655;  302,185
270,648;  290,807;  282,785;  284,885
270,737;  303,807;  288,526;  291,525
270,827;  318,741;  310,185;  313,455
270,916;  290,841;  286,935;  289,915
271,006;  296,207;  293,475;  292,885
271,096;  317,807;  317,005;  317,215
271,185;  289,274;  289,896;  289,145
271,275;  311,541;  300,706;  303,575
271,364;  288,441;  281,535;  285,725
271,454;  319,074;  308,255;  315,275
271,543;  301,307;  296,935;  297,745
271,633;  298,441;  293,926;  292,835
271,722;  296,274;  292,255;  296,455
271,812;  287,841;  286,296;  289,275
271,901;  298,541;  292,326;  293,765
271,990;  296,174;  291,836;  290,915
272,080;  300,941;  290,635;  294,915
272,169;  309,041;  301,905;  302,555
272,259;  297,341;  293,225;  292,695
272,348;  304,207;  305,796;  308,535
272,438;  298,074;  296,935;  293,635
272,527;  307,741;  303,996;  304,365
272,616;  307,474;  301,866;  305,295
272,706;  326,374;  320,935;  323,195
272,795;  322,074;  314,076;  315,755
272,884;  303,307;  297,076;  299,515
272,974;  327,141;  317,975;  319,965
273,063;  344,608;  338,206;  337,765
273,152;  311,374;  310,306;  307,735
273,242;  330,207;  320,276;  324,915
273,331;  328,908;  319,315;  322,835
273,420;  307,608;  301,105;  310,255
273,510;  314,707;  307,355;  308,155
273,599;  312,274;  303,255;  306,195
273,688;  311,741;  302,605;  301,885
273,778;  289,874;  285,065;  287,095
273,867;  321,574;  320,266;  317,015
273,956;  310,508;  303,725;  303,805
274,045;  275,441;  273,966;  275,965
274,135;  309,241;  303,905;  305,375
274,224;  296,307;  286,516;  290,045
274,313;  312,141;  305,586;  307,745
274,402;  284,108;  284,796;  287,085
274,491;  315,941;  310,975;  312,995
274,581;  309,674;  301,415;  302,765
274,670;  300,174;  293,146;  294,385
274,759;  303,274;  299,405;  300,435
274,848;  285,908;  276,655;  279,925
274,937;  289,908;  289,945;  287,635
275,026;  293,674;  285,616;  287,835
275,116;  326,341;  316,415;  315,805
275,205;  293,008;  266,926;  271,135
275,294;  333,241;  302,315;  304,335
275,383;  306,374;  299,905;  297,985
275,472;  295,508;  290,005;  290,825
275,561;  298,974;  290,505;  290,285
275,650;  315,074;  306,046;  306,435
275,739;  300,774;  294,776;  297,985
275,828;  279,174;  274,635;  277,965
275,917;  315,307;  312,065;  306,825
276,006;  301,508;  295,426;  296,835
276,095;  299,674;  294,526;  298,665
276,184;  313,341;  309,556;  307,945
276,273;  305,374;  303,105;  304,505
276,362;  283,074;  275,896;  278,535
276,451;  292,374;  291,306;  291,915
276,540;  298,608;  295,896;  296,105
276,629;  294,474;  292,576;  293,225
276,718;  274,807;  270,695;  274,545
276,807;  277,707;  271,625;  274,825
276,896;  287,474;  280,526;  284,495
276,985;  289,274;  283,616;  289,365
277,074;  305,841;  299,105;  300,525
277,163;  302,307;  294,746;  299,085
277,252;  277,841;  279,646;  276,465
277,341;  287,508;  281,236;  289,265
277,430;  281,374;  276,845;  279,355
277,519;  309,541;  298,956;  301,695
277,608;  267,441;  266,546;  267,775
277,696;  275,141;  266,975;  269,445
277,785;  287,674;  284,095;  283,485
277,874;  304,241;  299,605;  296,795
277,963;  293,608;  288,155;  289,995
278,052;  272,641;  264,776;  265,525
278,141;  298,108;  288,415;  290,745
278,229;  299,941;  290,146;  291,935
278,318;  274,074;  268,236;  271,495
278,407;  296,041;  285,576;  285,935
278,496;  293,307;  289,915;  291,965
278,585;  303,874;  300,486;  302,275
278,673;  269,641;  263,836;  266,715
278,762;  270,707;  266,176;  270,485
278,851;  289,141;  285,496;  286,035
278,940;  309,207;  303,685;  303,305
279,028;  301,874;  296,306;  299,585
279,117;  294,574;  282,725;  286,655
279,206;  284,508;  279,475;  284,105
279,294;  285,207;  284,396;  286,665
279,383;  286,874;  286,646;  287,335
279,472;  301,641;  298,095;  298,295
279,561;  291,008;  283,355;  284,975
279,649;  315,307;  308,535;  308,935
279,738;  257,141;  255,566;  255,215
279,827;  310,074;  306,785;  308,805
279,915;  285,207;  275,285;  276,335
280,004;  291,974;  286,565;  288,905
280,092;  311,474;  305,236;  306,635
280,181;  293,274;  280,516;  282,605
280,270;  291,908;  277,866;  281,595
280,358;  312,008;  291,366;  288,915
280,447;  271,908;  261,415;  264,455
280,535;  282,408;  276,016;  275,945
280,624;  288,074;  274,185;  276,805
280,713;  282,408;  277,146;  283,385
280,801;  301,074;  293,116;  293,805
280,890;  297,307;  289,716;  295,475
280,978;  286,441;  280,755;  281,945
281,067;  262,307;  250,676;  255,865
281,155;  286,508;  274,855;  275,705
281,244;  323,408;  313,595;  316,445
281,332;  301,174;  290,845;  293,825
281,421;  276,941;  271,605;  273,675
281,509;  284,674;  284,646;  282,415
281,598;  269,374;  262,435;  263,765
281,686;  294,041;  290,776;  288,945
281,775;  288,008;  285,516;  290,815
281,863;  288,374;  278,016;  279,225
281,951;  279,307;  267,665;  270,735
282,040;  315,074;  300,315;  301,115
282,128;  297,807;  288,375;  294,235
282,217;  276,807;  265,926;  266,075
282,305;  307,874;  294,796;  294,045
282,393;  298,774;  286,505;  284,595
282,482;  290,574;  279,535;  283,255
282,570;  278,874;  266,945;  270,215
282,658;  288,174;  276,116;  277,715
282,747;  283,608;  265,026;  267,905
282,835;  322,974;  306,076;  309,035
282,923;  277,841;  264,655;  267,805
283,012;  299,574;  291,366;  296,345
283,100;  281,408;  269,185;  274,675
283,188;  272,241;  261,125;  262,525
283,277;  292,141;  284,336;  284,745
283,365;  280,574;  271,676;  278,375
283,453;  274,674;  264,755;  270,455
283,542;  299,207;  290,896;  293,765
283,630;  286,374;  276,195;  278,595
283,718;  276,074;  271,195;  274,365
283,806;  249,874;  241,706;  247,485
283,894;  274,674;  274,336;  274,395
283,983;  288,941;  282,165;  282,605
284,071;  294,508;  285,285;  291,495
284,159;  312,108;  309,125;  314,805
284,247;  298,008;  287,466;  288,555
284,335;  293,041;  286,935;  287,485
284,424;  297,441;  283,915;  288,465
284,512;  286,341;  283,475;  286,175
284,600;  284,541;  279,415;  280,145
284,688;  319,641;  312,815;  317,115
284,776;  289,774;  286,815;  287,745
284,864;  313,008;  302,125;  308,655
284,952;  293,041;  289,625;  289,025
285,041;  311,641;  298,255;  298,145
285,129;  312,274;  299,435;  302,445
285,217;  304,707;  300,056;  303,885
285,305;  325,974;  318,676;  319,885
285,393;  283,174;  275,776;  278,695
285,481;  303,341;  296,665;  298,405
285,569;  289,941;  282,966;  285,145
285,657;  301,008;  295,165;  296,255
285,745;  294,941;  292,655;  293,125
285,833;  297,307;  289,505;  293,165
285,921;  304,674;  298,116;  300,945
286,009;  305,908;  301,105;  303,655
286,097;  297,574;  298,236;  301,315
286,185;  288,674;  284,405;  284,795
286,273;  286,274;  283,415;  284,655
286,361;  315,341;  307,915;  311,825
286,449;  300,341;  296,195;  294,565
286,537;  308,574;  304,105;  302,085
286,625;  298,741;  291,185;  293,415
286,713;  280,707;  275,806;  280,315
286,801;  318,274;  312,076;  307,795
286,889;  324,074;  319,435;  320,055
286,976;  295,807;  287,905;  291,205
287,064;  316,674;  307,635;  311,875
287,152;  309,741;  303,576;  305,585
287,240;  314,474;  309,185;  308,845
287,328;  290,508;  287,685;  281,755
287,416;  298,574;  290,975;  292,385
287,504;  304,508;  294,435;  298,285
287,591;  305,041;  298,176;  300,225
287,679;  288,474;  286,095;  286,145
287,767;  306,774;  298,206;  296,985
287,855;  310,941;  303,736;  307,515
287,943;  315,974;  306,716;  309,435
288,030;  295,807;  293,456;  291,795
288,118;  320,874;  318,255;  318,995
288,206;  280,174;  274,956;  275,705
288,294;  310,041;  301,986;  304,135
288,382;  305,408;  300,776;  303,615
288,469;  311,841;  304,396;  308,895
288,557;  294,541;  294,095;  292,615
288,645;  327,908;  323,396;  323,315
288,732;  279,241;  278,915;  279,235
288,820;  309,541;  304,576;  306,785
288,908;  309,841;  304,826;  303,915
288,995;  319,741;  310,945;  310,305
289,083;  301,341;  293,026;  292,935
289,171;  331,807;  320,165;  325,565
289,258;  373,974;  322,176;  324,305
289,346;  438,908;  326,266;  329,365
289,434;  313,441;  303,435;  306,185
289,521;  294,608;  280,415;  286,295
289,609;  325,574;  320,426;  325,405
289,697;  321,207;  312,336;  315,125
289,784;  303,307;  295,445;  295,775
289,872;  315,508;  306,905;  313,015
289,959;  288,174;  282,375;  283,415
290,047;  302,608;  296,546;  300,865
290,134;  274,874;  272,665;  273,815
290,222;  312,374;  308,915;  308,665
290,310;  313,741;  304,905;  307,145
290,397;  337,674;  328,505;  332,835
290,485;  295,841;  290,815;  293,005
290,572;  318,174;  313,225;  314,645
290,660;  306,807;  306,385;  306,205
290,747;  300,141;  295,165;  292,775
290,835;  311,408;  299,016;  302,505
290,922;  307,307;  304,016;  305,515
291,009;  305,608;  297,676;  301,715
291,097;  299,641;  297,926;  300,755
291,184;  334,974;  332,716;  338,585
291,272;  288,641;  282,966;  288,375
291,359;  287,241;  283,915;  289,305
291,447;  306,508;  303,086;  304,735
291,534;  329,008;  327,326;  323,005
291,621;  305,908;  302,845;  301,105
291,709;  291,508;  285,716;  283,705
291,796;  324,141;  320,146;  316,555
291,884;  297,441;  291,466;  296,115
291,971;  318,441;  315,065;  320,295
292,058;  293,441;  288,725;  288,985
292,146;  296,541;  293,746;  297,955
292,233;  286,141;  285,426;  284,765
292,320;  294,207;  294,306;  297,685
292,408;  316,541;  309,086;  308,565
292,495;  304,441;  290,565;  293,085
292,582;  288,674;  286,845;  287,375
292,669;  287,441;  281,415;  286,055
292,757;  288,774;  282,176;  283,865
292,844;  316,774;  312,935;  313,175
292,931;  283,874;  275,176;  277,485
293,018;  292,108;  291,516;  289,915
293,106;  307,008;  299,966;  303,035
293,193;  276,307;  272,415;  274,385
293,280;  305,207;  297,255;  303,635
293,367;  297,741;  296,956;  295,215
293,455;  299,241;  293,185;  294,155
293,542;  290,274;  275,695;  281,445
293,629;  281,474;  279,035;  281,855
293,716;  308,874;  305,646;  311,195
293,803;  289,274;  287,105;  287,695
293,890;  313,874;  310,336;  312,555
293,978;  293,041;  284,105;  290,755
294,065;  290,508;  286,725;  284,345
294,152;  309,108;  302,385;  304,355
294,239;  281,174;  275,646;  274,625
294,326;  292,274;  286,746;  290,635
294,413;  282,041;  278,046;  278,465
294,500;  298,874;  292,586;  295,255
294,587;  289,974;  283,915;  287,195
294,674;  312,074;  305,875;  306,925
294,761;  293,174;  288,896;  287,945
294,848;  295,441;  286,866;  294,115
294,935;  294,074;  290,746;  290,555
295,022;  272,841;  272,396;  274,105
295,109;  269,974;  258,466;  262,665
295,196;  295,108;  291,405;  295,265
295,283;  282,274;  281,176;  278,745
295,370;  315,874;  308,975;  312,155
295,457;  296,807;  289,986;  290,435
295,544;  285,074;  285,105;  287,985
295,631;  296,574;  290,165;  295,805
295,718;  275,074;  272,676;  274,015
295,805;  304,541;  296,225;  296,685
295,892;  309,374;  300,005;  304,445
295,979;  300,374;  291,266;  292,755
296,066;  300,108;  293,996;  296,145
296,153;  299,541;  296,026;  296,355
296,240;  305,774;  299,206;  300,535
296,327;  297,674;  285,206;  285,615
296,413;  315,441;  301,285;  305,075
296,500;  339,774;  302,755;  305,145
296,587;  517,708;  288,616;  286,065
296,674; 1624,174;  294,396;  297,335
296,761;  814,074;  300,095;  298,245
296,848;  302,608;  281,956;  285,815
296,934;  300,008;  290,966;  295,265
297,021;  298,341;  292,565;  292,975
297,108;  284,574;  276,366;  280,895
297,195;  298,374;  291,466;  294,705
297,282;  295,041;  286,535;  286,195
297,368;  312,307;  310,026;  305,975
297,455;  285,008;  279,155;  283,145
297,542;  316,841;  311,375;  313,235
297,629;  306,874;  299,016;  300,205
297,715;  311,141;  308,285;  310,385
297,802;  313,408;  300,466;  303,285
297,889;  319,174;  311,716;  313,025
297,975;  329,174;  322,836;  323,685
298,062;  318,908;  310,505;  312,995
298,149;  278,074;  273,505;  274,905
298,235;  297,374;  291,135;  294,075
298,322;  299,374;  294,806;  292,785
298,409;  309,474;  311,195;  312,715
298,495;  291,041;  285,435;  283,435
298,582;  309,341;  307,516;  308,065
298,669;  301,574;  290,526;  294,245
298,755;  301,307;  299,065;  302,235
298,842;  305,041;  304,755;  309,095
298,928;  307,674;  303,855;  304,595
299,015;  296,574;  294,896;  296,705
299,102;  320,908;  318,986;  320,565
299,188;  321,041;  315,956;  316,045
299,275;  307,141;  309,926;  309,365
299,361;  281,974;  278,875;  281,665
299,448;  310,474;  312,466;  310,885
299,534;  312,908;  312,355;  312,735
299,621;  305,741;  304,655;  303,865
299,707;  307,974;  299,016;  304,675
299,794;  323,707;  319,885;  319,685
299,880;  318,307;  317,076;  318,325
299,967;  310,374;  296,345;  296,295
300,053;  296,974;  295,935;  299,065
300,140;  328,541;  323,086;  328,875
300,226;  317,541;  313,885;  313,595
300,312;  306,741;  307,276;  306,695
300,399;  313,608;  305,505;  308,465
300,485;  298,241;  297,776;  301,725
300,572;  286,574;  281,655;  281,655
300,658;  297,408;  297,216;  294,585
300,744;  312,241;  310,706;  311,315
300,831;  321,974;  313,595;  318,275
300,917;  322,608;  321,676;  320,915
301,004;  317,941;  311,556;  311,015
301,090;  279,974;  277,785;  280,095
301,176;  292,974;  284,255;  288,205
301,263;  317,341;  313,676;  314,925
301,349;  295,041;  289,475;  293,305
301,435;  288,841;  284,276;  285,095
301,521;  319,841;  314,625;  313,245
301,608;  322,574;  314,695;  315,515
301,694;  305,608;  297,896;  300,535
301,780;  303,908;  303,046;  298,285
301,867;  293,741;  280,836;  285,265
301,953;  314,141;  296,595;  301,165
302,039;  385,041;  295,116;  297,515
302,125;  542,508;  298,445;  304,125
302,211;  362,241;  332,926;  334,115
302,298;  348,474;  301,926;  305,295
302,384;  300,641;  281,116;  287,095
302,470;  299,974;  289,505;  291,305
302,556;  308,341;  301,935;  305,645
302,642;  295,674;  293,456;  295,155
302,729;  298,874;  289,306;  293,525
302,815;  319,008;  317,966;  319,775
302,901;  296,241;  296,475;  298,745
302,987;  314,074;  307,716;  308,245
303,073;  304,908;  304,185;  302,795
303,159;  302,807;  296,945;  298,695
303,245;  291,674;  284,336;  290,495
303,331;  285,474;  283,486;  286,455
303,417;  301,041;  294,556;  296,145
303,503;  313,141;  310,046;  312,155
303,590;  296,241;  289,146;  291,705
303,676;  309,274;  299,505;  300,385
303,762;  298,774;  287,185;  287,835
303,848;  314,274;  311,026;  312,055
303,934;  315,807;  304,915;  307,775
304,020;  307,508;  301,796;  304,745
304,106;  320,108;  309,975;  314,015
304,192;  298,108;  291,796;  296,765
304,278;  310,008;  302,896;  304,455
304,364;  330,274;  323,026;  324,755
304,450;  311,074;  301,496;  304,095
304,535;  308,108;  304,005;  304,245
304,621;  306,441;  301,565;  302,205
304,707;  306,274;  306,296;  307,635
304,793;  324,508;  318,625;  318,575
304,879;  308,274;  306,776;  310,585
304,965;  323,574;  312,845;  313,365
305,051;  312,641;  308,616;  311,355
305,137;  322,408;  318,146;  324,235
305,223;  293,574;  291,445;  293,725
305,309;  314,307;  313,496;  317,755
305,394;  312,207;  311,996;  311,465
305,480;  308,174;  299,426;  304,775
305,566;  316,307;  309,355;  310,525
305,652;  318,241;  313,605;  317,885
305,738;  356,974;  349,206;  353,435
305,824;  319,741;  316,016;  315,095
305,909;  329,541;  323,815;  325,155
305,995;  297,641;  289,595;  290,025
306,081;  352,974;  348,345;  350,435
306,167;  311,508;  303,966;  307,875
306,252;  328,707;  324,375;  325,505
306,338;  337,574;  331,366;  335,515
306,424;  306,641;  306,595;  307,415
306,510;  317,974;  316,105;  319,795
306,595;  333,341;  323,685;  322,125
306,681;  318,341;  316,926;  318,895
306,767;  308,508;  305,336;  309,425
306,852;  335,374;  328,255;  331,375
306,938;  330,408;  325,796;  325,905
307,024;  308,141;  302,875;  304,755
307,109;  337,408;  336,065;  338,965
307,195;  321,674;  316,326;  318,385
307,281;  321,408;  318,716;  318,575
307,366;  317,874;  313,345;  310,455
307,452;  326,807;  312,426;  316,335
307,537;  302,307;  296,776;  298,485
307,623;  298,541;  292,105;  296,985
307,709;  316,974;  309,885;  310,795
307,794;  293,174;  288,576;  291,835
307,880;  326,541;  320,236;  319,735
307,965;  315,108;  307,456;  307,525
308,051;  300,974;  297,195;  298,065
308,136;  292,274;  297,165;  296,745
308,222;  303,874;  300,366;  302,045
308,307;  295,074;  295,116;  296,645
308,393;  299,874;  295,535;  300,335
308,478;  317,974;  321,826;  318,975
308,564;  298,174;  295,516;  288,925
308,649;  306,074;  308,496;  308,295
308,735;  302,441;  294,155;  300,535
308,820;  321,141;  320,655;  319,455
308,906;  300,574;  291,625;  300,515
308,991;  342,707;  341,076;  338,375
309,076;  321,674;  319,336;  320,645
309,162;  288,341;  283,945;  283,805
309,247;  309,674;  309,945;  308,415
309,333;  298,807;  291,646;  297,855
309,418;  305,841;  298,665;  301,955
309,503;  300,608;  297,646;  300,235
309,589;  307,841;  303,725;  305,345
309,674;  294,541;  290,945;  289,235
309,759;  307,074;  303,315;  304,195
309,845;  314,741;  311,016;  312,415
309,930;  311,807;  305,966;  307,375
310,015;  278,008;  276,095;  276,835
310,101;  320,574;  315,616;  319,905
310,186;  293,374;  285,426;  288,565
310,271;  300,341;  297,296;  298,295
310,357;  304,641;  297,526;  296,455
310,442;  311,841;  302,445;  303,865
310,527;  305,474;  297,766;  301,125
310,612;  281,608;  278,195;  281,425
310,698;  322,108;  319,725;  321,135
310,783;  308,241;  301,176;  302,685
310,868;  298,608;  294,285;  295,125
310,953;  287,341;  284,165;  285,195
311,038;  321,508;  311,146;  310,075
311,124;  294,508;  294,635;  290,925
311,209;  282,541;  276,736;  277,355
311,294;  312,908;  310,206;  312,575
311,379;  281,274;  276,785;  277,345
311,464;  302,307;  297,405;  297,635
311,549;  291,508;  282,385;  284,505
311,634;  298,074;  290,396;  286,805
311,719;  322,041;  316,016;  315,415
311,805;  297,141;  289,266;  291,605
311,890;  299,807;  295,165;  295,925
311,975;  298,174;  281,526;  286,055
312,060;  308,374;  298,146;  302,435
312,145;  293,408;  277,586;  276,025
312,230;  322,674;  290,815;  296,495
312,315;  332,341;  294,065;  296,045
312,400;  407,141;  296,396;  299,795
312,485; 1571,041;  290,535;  292,475
312,570; 1266,007;  277,125;  279,615
312,655;  351,374;  308,176;  313,325
312,740;  331,408;  301,616;  302,005
312,825;  341,108;  304,105;  307,725
312,910;  356,274;  307,736;  309,235
312,995;  446,707;  296,236;  298,245
313,080; 1926,074;  285,655;  286,805
313,165; 2192,341;  303,565;  305,305
313,250;  374,441;  287,276;  287,825
313,335;  332,174;  307,435;  312,125
313,419;  279,541;  267,466;  268,635
313,504;  324,807;  313,355;  315,225
313,589;  311,408;  295,216;  297,545
313,674;  320,508;  307,206;  310,085
313,759;  292,874;  281,556;  282,625
313,844;  300,741;  292,776;  291,005
313,929;  299,508;  289,945;  291,695
314,014;  325,807;  313,306;  315,005
314,098;  305,508;  299,035;  300,425
314,183;  270,707;  263,505;  263,795
314,268;  299,941;  296,496;  298,955
314,353;  312,441;  302,026;  306,185
314,438;  313,341;  306,905;  311,515
314,522;  315,908;  309,486;  308,535
314,607;  313,908;  307,565;  307,855
314,692;  308,041;  301,885;  303,855
314,777;  295,108;  291,766;  292,395
314,861;  284,641;  277,285;  276,385
314,946;  320,908;  315,116;  317,565
315,031;  297,474;  291,875;  294,115
315,115;  311,474;  306,206;  308,065
315,200;  317,574;  312,146;  313,065
315,285;  293,874;  289,486;  289,595
315,369;  291,707;  287,945;  288,545
315,454;  318,774;  311,905;  311,025
315,539;  313,974;  310,246;  307,795
315,623;  314,474;  309,426;  313,225
315,708;  342,474;  335,605;  336,825
315,793;  301,408;  297,986;  298,155
315,877;  310,741;  302,975;  305,445
315,962;  289,974;  289,105;  291,925
316,046;  322,541;  317,065;  319,225
316,131;  336,141;  334,516;  337,215
316,216;  315,674;  310,315;  310,785
316,300;  304,908;  303,345;  302,165
316,385;  331,641;  325,315;  324,305
316,469;  334,541;  330,625;  331,955
316,554;  306,441;  296,005;  298,425
316,638;  305,874;  296,725;  301,565
316,723;  297,074;  292,546;  293,795
316,807;  296,141;  299,595;  299,275
316,892;  295,774;  288,975;  289,925
316,976;  316,441;  314,405;  316,505
317,061;  311,408;  306,035;  305,965
317,145;  329,207;  327,655;  325,965
317,230;  323,508;  321,505;  319,905
317,314;  278,807;  275,565;  275,085
317,398;  315,441;  310,706;  312,245
317,483;  292,241;  290,026;  291,085
317,567;  321,707;  315,326;  317,865
317,652;  286,108;  283,526;  286,625
317,736;  314,674;  308,776;  309,285
317,820;  332,641;  329,005;  334,665
317,905;  302,941;  306,706;  307,035
317,989;  304,541;  298,285;  300,875
318,073;  298,174;  298,076;  297,705
318,158;  292,174;  284,966;  285,565
318,242;  300,707;  296,845;  299,095
318,326;  288,274;  283,155;  284,015
318,411;  295,408;  295,125;  296,565
318,495;  284,374;  285,776;  287,165
318,579;  286,807;  288,746;  289,305
318,664;  287,374;  280,315;  284,255
318,748;  314,508;  305,996;  310,145
318,832;  293,508;  290,806;  289,475
318,916;  272,341;  274,785;  277,335
319,001;  297,508;  299,945;  301,485
319,085;  292,674;  292,885;  290,905
319,169;  298,207;  293,396;  294,485
319,253;  293,307;  287,216;  285,525
319,337;  309,474;  306,246;  304,885
319,422;  314,774;  316,125;  313,225
319,506;  287,608;  283,326;  285,905
319,590;  309,641;  303,915;  305,525
319,674;  298,008;  291,926;  295,405
319,758;  300,841;  295,165;  300,215
319,842;  311,874;  306,135;  309,155
319,926;  296,141;  294,815;  295,205
320,010;  273,574;  267,046;  269,575
320,095;  288,441;  280,926;  284,685
320,179;  280,974;  279,125;  281,175
320,263;  284,041;  277,385;  285,805
320,347;  275,674;  271,296;  279,075
320,431;  277,541;  273,435;  274,355
320,515;  303,441;  296,375;  299,935
320,599;  274,674;  269,866;  273,825
320,683;  311,108;  305,706;  305,495
320,767;  268,307;  266,236;  266,205
320,851;  284,807;  281,855;  287,785
320,935;  322,974;  312,565;  318,275
321,019;  293,008;  292,975;  290,075
321,103;  282,207;  278,135;  280,585
321,187;  274,408;  273,165;  273,265
321,271;  301,441;  294,616;  296,825
321,355;  284,041;  281,595;  283,805
321,439;  301,108;  301,216;  301,725
321,523;  286,508;  282,266;  284,705
321,606;  288,707;  287,426;  288,215
321,690;  293,241;  287,026;  288,215
321,774;  297,608;  288,336;  292,205
321,858;  296,141;  292,966;  291,945
321,942;  301,108;  294,276;  298,975
322,026;  283,108;  283,315;  282,695
322,110;  296,408;  293,146;  295,755
322,194;  301,774;  295,355;  301,055
322,277;  288,241;  286,135;  287,285
322,361;  279,874;  278,595;  281,215
322,445;  291,807;  289,315;  291,095
322,529;  295,241;  297,716;  299,645
322,613;  306,008;  297,206;  297,795
322,696;  271,807;  267,695;  272,865
322,780;  289,807;  283,026;  283,485
322,864;  278,774;  272,625;  279,835
322,948;  298,008;  292,326;  295,965
323,031;  291,374;  281,565;  282,215
323,115;  290,641;  284,586;  285,215
323,199;  299,307;  296,565;  299,105
323,282;  312,374;  307,496;  310,065
323,366;  287,874;  287,296;  293,625
323,450;  278,941;  273,496;  275,835
323,533;  322,274;  314,576;  317,415
323,617;  273,841;  268,695;  271,585
323,701;  289,908;  281,105;  283,575
323,784;  296,941;  292,576;  294,205
323,868;  301,108;  297,866;  299,875
323,952;  294,074;  290,966;  294,175
324,035;  310,408;  305,926;  310,825
324,119;  295,141;  295,466;  298,455
324,202;  296,274;  286,836;  292,745
324,286;  297,108;  284,986;  286,605
324,370;  299,941;  293,105;  296,765
324,453;  306,941;  299,616;  301,745
324,537;  298,074;  294,426;  298,035
324,620;  288,508;  286,635;  291,765
324,704;  275,641;  270,445;  276,525
324,787;  295,074;  294,875;  296,265
324,871;  312,041;  310,986;  315,255
324,954;  317,207;  312,246;  315,985
325,038;  314,307;  306,466;  306,985
325,121;  316,941;  308,695;  312,075
325,205;  300,574;  290,396;  293,295
325,288;  289,174;  279,556;  285,675
325,371;  308,041;  298,945;  302,395
325,455;  314,041;  314,026;  312,045
325,538;  286,908;  281,516;  287,185
325,622;  331,608;  320,806;  321,295
325,705;  301,941;  297,716;  298,675
325,788;  315,974;  313,625;  316,645
325,872;  306,474;  300,796;  300,745
325,955;  322,307;  319,845;  325,065
326,039;  310,074;  309,576;  312,795
326,122;  315,441;  310,746;  311,665
326,205;  319,874;  311,806;  310,235
326,289;  319,674;  313,986;  319,245
326,372;  305,307;  294,746;  299,195
326,455;  324,574;  323,095;  324,405
326,538;  322,108;  312,336;  316,545
326,622;  324,541;  318,396;  320,075
326,705;  293,674;  287,315;  287,875
326,788;  331,041;  321,266;  322,405
326,871;  318,441;  315,576;  317,965
326,955;  316,974;  313,836;  315,225
327,038;  314,908;  310,116;  310,855
327,121;  309,674;  301,516;  307,855
327,204;  315,908;  313,216;  314,045
327,288;  333,874;  328,956;  332,375
327,371;  291,807;  288,185;  296,955
327,454;  319,841;  313,065;  313,845
327,537;  301,241;  299,815;  302,435
327,620;  329,941;  322,935;  330,145
327,703;  315,874;  309,076;  310,615
327,786;  314,841;  311,076;  312,115
327,870;  333,641;  323,155;  328,715
327,953;  306,307;  301,155;  305,785
328,036;  299,641;  293,105;  299,035
328,119;  321,274;  317,576;  321,135
328,202;  306,008;  301,885;  305,875
328,285;  331,108;  326,776;  329,015
328,368;  317,641;  320,935;  322,625
328,451;  324,974;  320,635;  322,565
328,534;  305,441;  301,266;  307,075
328,617;  308,608;  305,676;  311,785
328,700;  331,108;  326,505;  326,695
328,783;  325,641;  320,785;  322,875
328,866;  318,341;  314,095;  319,935
328,949;  329,441;  319,966;  326,555
329,032;  296,807;  297,826;  300,605
329,115;  299,574;  290,905;  295,945
329,198;  283,408;  282,956;  283,785
329,281;  301,474;  299,336;  298,465
329,364;  314,841;  316,246;  319,245
329,447;  310,874;  307,176;  309,255
329,530;  332,774;  328,155;  328,175
329,613;  303,941;  300,565;  306,725
329,696;  333,441;  326,806;  330,715
329,778;  321,641;  311,306;  316,915
329,861;  297,474;  295,236;  299,565
329,944;  324,974;  321,685;  327,225
330,027;  319,641;  311,576;  315,115
330,110;  313,141;  307,595;  311,705
330,193;  301,108;  295,306;  299,955
330,275;  315,574;  312,296;  315,835
330,358;  296,207;  291,776;  296,185
330,441;  330,908;  323,586;  325,365
330,524;  313,207;  305,216;  311,095
330,607;  303,341;  304,345;  306,905
330,689;  312,807;  313,105;  314,535
330,772;  314,741;  311,105;  312,425
330,855;  327,707;  325,065;  327,855
330,938;  315,441;  312,315;  321,275
331,020;  322,041;  317,176;  320,535
331,103;  292,874;  293,035;  294,505
331,186;  314,141;  305,146;  307,085
331,268;  299,941;  293,565;  298,695
331,351;  323,841;  313,026;  316,455
331,434;  319,174;  308,385;  312,645
331,516;  320,441;  319,076;  321,185
331,599;  297,408;  297,095;  301,425
331,682;  317,074;  310,736;  310,985
331,764;  292,207;  293,326;  297,915
331,847;  314,341;  313,716;  315,705
331,929;  289,674;  290,026;  293,225
332,012;  314,341;  309,625;  310,055
332,095;  328,274;  323,306;  326,625
332,177;  325,941;  320,806;  324,285
332,260;  329,541;  327,526;  328,035
332,342;  310,374;  309,246;  314,445
332,425;  315,674;  312,516;  311,505
332,507;  310,108;  308,526;  311,575
332,590;  295,541;  287,595;  291,655
332,672;  295,108;  294,885;  298,455
332,755;  311,108;  306,855;  311,605
332,837;  315,574;  310,716;  312,255
332,920;  313,841;  309,076;  315,155
333,002;  337,241;  325,676;  328,895
333,085;  309,374;  313,375;  315,165
333,167;  303,374;  296,875;  298,575
333,249;  294,707;  294,526;  298,145
333,332;  296,374;  293,296;  297,715
333,414;  301,974;  300,035;  304,875
333,497;  302,108;  300,255;  302,305
333,579;  309,041;  300,996;  306,375
333,661;  326,341;  319,706;  320,745
333,744;  303,207;  293,695;  297,125
333,826;  310,074;  305,766;  306,065
333,908;  320,941;  313,896;  316,665
333,991;  304,941;  291,266;  291,545
334,073;  462,274;  312,706;  318,525
334,155;  359,174;  304,086;  305,525
334,238;  324,207;  318,576;  326,145
334,320;  299,108;  297,046;  300,585
334,402;  308,441;  302,996;  304,895
334,485;  312,307;  303,655;  304,015
334,567;  304,274;  299,776;  301,975
334,649;  283,974;  278,426;  282,925
334,731;  318,408;  313,456;  317,305
334,813;  319,207;  315,605;  320,355
334,896;  292,541;  290,185;  294,595
334,978;  308,608;  309,165;  302,585
335,060;  309,741;  304,255;  304,235
335,142;  302,674;  301,665;  302,275
335,224;  312,674;  309,766;  311,745
335,307;  294,674;  297,456;  298,965
335,389;  320,408;  310,385;  317,305
335,471;  304,908;  299,896;  306,115
335,553;  327,774;  319,866;  318,905
335,635;  319,374;  312,836;  315,315
335,717;  301,874;  298,195;  300,145
335,799;  317,807;  322,695;  323,585
335,881;  280,674;  278,385;  282,845
335,963;  298,041;  291,796;  293,005
336,045;  297,474;  295,516;  301,085
336,128;  278,307;  270,945;  275,225
336,210;  290,674;  288,996;  292,295
336,292;  302,508;  297,845;  300,615
336,374;  309,508;  300,956;  306,155
336,456;  297,941;  285,616;  288,495
336,538;  305,707;  303,165;  304,435
336,620;  316,141;  310,576;  312,205
336,702;  296,508;  294,766;  294,235
336,783;  310,141;  302,556;  304,225
336,865;  313,274;  304,176;  305,725
336,947;  312,874;  308,486;  311,205
337,029;  282,408;  281,826;  282,945
337,111;  323,474;  316,266;  316,735
337,193;  288,074;  280,986;  284,795
337,275;  315,908;  310,815;  314,535
337,357;  322,707;  318,815;  324,805
337,439;  308,974;  305,255;  310,655
337,521;  277,374;  277,225;  280,915
337,602;  305,174;  298,435;  301,085
337,684;  319,908;  315,635;  317,455
337,766;  314,441;  312,266;  312,305
337,848;  305,474;  295,086;  301,025
337,930;  305,108;  303,165;  306,525
338,012;  304,908;  298,586;  299,555
338,093;  321,574;  312,396;  315,895
338,175;  321,807;  318,195;  321,575
338,257;  308,741;  306,945;  309,225
338,339;  296,674;  294,086;  300,165
338,420;  310,707;  310,986;  310,895
338,502;  306,774;  298,836;  304,265
338,584;  289,841;  286,736;  289,235
338,666;  309,207;  303,426;  302,365
338,747;  335,307;  330,806;  334,875
338,829;  311,807;  309,176;  309,265
338,911;  297,141;  296,236;  298,915
338,992;  295,608;  295,746;  294,435
339,074;  306,041;  306,155;  307,855
339,156;  302,707;  298,176;  303,395
339,237;  327,707;  325,035;  327,765
339,319;  303,008;  294,935;  300,045
339,400;  316,341;  309,065;  311,225
339,482;  277,341;  278,165;  280,605
339,564;  321,207;  317,026;  316,575
339,645;  303,374;  304,595;  308,105
339,727;  291,941;  290,216;  294,375
339,808;  320,741;  317,685;  322,555
339,890;  304,441;  299,956;  302,415
339,971;  312,374;  307,016;  315,055
340,053;  336,441;  336,746;  335,255
340,134;  301,441;  296,535;  298,415
340,216;  322,174;  315,556;  319,645
340,297;  303,307;  298,396;  301,525
340,379;  320,241;  314,736;  316,975
340,460;  308,841;  306,685;  306,615
340,542;  301,207;  294,535;  297,775
340,623;  313,574;  307,926;  312,435
340,705;  299,674;  297,516;  295,795
340,786;  289,641;  289,685;  291,925
340,868;  300,974;  308,826;  304,055
340,949;  286,841;  285,605;  286,145
341,030;  330,841;  321,435;  328,715
341,112;  286,441;  280,565;  284,075
341,193;  273,374;  270,135;  273,595
341,274;  324,707;  322,176;  320,965
341,356;  320,807;  320,716;  321,795
341,437;  299,641;  301,635;  300,825
341,518;  313,941;  307,176;  314,795
341,600;  320,074;  320,866;  322,465
341,681;  331,408;  328,866;  332,375
341,762;  322,508;  325,206;  323,705
341,844;  290,174;  287,146;  292,185
341,925;  316,274;  308,225;  311,205
342,006;  327,474;  320,426;  323,055
342,087;  291,674;  288,095;  292,095
342,169;  312,741;  307,026;  309,845
342,250;  284,207;  286,935;  285,935
342,331;  302,241;  298,706;  299,075
342,412;  313,608;  307,655;  310,045
342,493;  294,641;  289,415;  293,325
342,575;  322,241;  327,095;  327,355
342,656;  319,741;  318,466;  318,265
342,737;  327,574;  329,836;  330,295
342,818;  309,207;  307,996;  309,015
342,899;  321,541;  314,505;  317,165
342,980;  310,474;  306,695;  310,155
343,061;  307,874;  303,065;  304,715
343,143;  320,508;  319,535;  319,565
343,224;  310,741;  306,706;  305,915
343,305;  307,041;  299,625;  303,115
343,386;  303,474;  297,996;  300,475
343,467;  305,974;  303,155;  305,535
343,548;  308,908;  304,176;  305,935
343,629;  318,841;  316,405;  317,625
343,710;  324,474;  322,766;  321,015
343,791;  328,108;  325,065;  327,935
343,872;  300,441;  298,975;  297,795
343,953;  320,608;  314,826;  316,625
344,034;  324,807;  319,475;  324,485
344,115;  308,841;  304,255;  303,425
344,196;  297,874;  298,935;  302,165
344,277;  298,974;  293,306;  294,615
344,358;  311,207;  304,755;  307,345
344,439;  291,141;  293,975;  294,205
344,520;  300,141;  298,546;  300,975
344,601;  320,508;  314,646;  315,525
344,681;  309,207;  302,426;  303,825
344,762;  286,908;  283,466;  287,625
344,843;  279,074;  275,996;  281,125
344,924;  310,574;  303,635;  306,085
345,005;  291,807;  287,176;  288,725
345,086;  315,641;  307,665;  309,725
345,167;  293,441;  293,986;  295,575
345,247;  324,908;  323,896;  328,905
345,328;  321,541;  315,315;  317,705
345,409;  311,974;  307,056;  309,355
345,490;  313,374;  308,415;  314,245
345,571;  318,141;  304,875;  312,045
345,651;  287,408;  279,456;  279,055
345,732;  312,807;  307,285;  312,275
345,813;  319,574;  311,836;  317,355
345,894;  288,341;  285,785;  287,595
345,974;  313,207;  309,556;  311,845
346,055;  300,641;  296,435;  295,735
346,136;  310,241;  304,405;  306,245
346,216;  320,941;  324,945;  328,565
346,297;  307,307;  306,565;  304,225
346,378;  292,374;  291,996;  294,005
346,458;  311,541;  307,375;  313,405
346,539;  305,374;  302,306;  305,975
346,620;  304,041;  305,815;  306,685
346,700;  289,374;  288,755;  289,765
346,781;  293,841;  284,556;  286,765
346,861;  303,908;  304,336;  307,325
346,942;  306,541;  304,336;  302,715
347,023;  322,508;  317,885;  316,005
347,103;  301,574;  297,396;  302,825
347,184;  297,341;  294,475;  296,785
347,264;  293,274;  294,565;  296,805
347,345;  295,141;  290,526;  295,525
347,425;  287,108;  285,125;  290,565
347,506;  290,441;  283,595;  283,195
347,586;  296,974;  289,725;  292,435
347,667;  307,141;  307,616;  304,445
347,747;  307,541;  311,116;  310,775
347,828;  300,474;  296,486;  296,465
347,908;  304,974;  303,306;  307,175
347,988;  302,408;  298,655;  306,125
348,069;  318,474;  311,056;  311,395
348,149;  310,207;  303,956;  309,065
348,230;  312,474;  309,956;  310,945
348,310;  286,608;  284,185;  285,715
348,390;  287,674;  288,526;  288,625
348,471;  307,774;  303,665;  305,125
348,551;  298,474;  290,695;  293,935
348,632;  291,341;  289,505;  294,065
348,712;  293,508;  292,706;  295,115
348,792;  335,008;  329,836;  329,985
348,873;  290,408;  281,905;  283,045
348,953;  290,408;  289,845;  290,395
349,033;  306,041;  297,466;  299,465
349,113;  288,841;  286,076;  286,905
349,194;  304,974;  301,595;  304,825
349,274;  306,974;  304,796;  307,395
349,354;  305,574;  303,046;  308,435
349,434;  303,441;  300,116;  301,925
349,515;  321,774;  316,486;  322,185
349,595;  307,307;  302,206;  302,035
349,675;  313,441;  305,635;  308,015
349,755;  297,741;  296,746;  297,615
349,835;  302,741;  301,195;  307,695
349,916;  306,307;  298,435;  303,915
349,996;  295,207;  291,105;  291,745
350,076;  316,941;  312,375;  317,645
350,156;  286,674;  284,836;  287,665
350,236;  313,174;  314,116;  311,925
350,316;  295,608;  292,975;  295,765
350,396;  314,074;  305,646;  310,065
350,476;  309,274;  301,826;  304,275
350,556;  296,141;  293,966;  299,935
350,637;  321,474;  321,005;  321,825
350,717;  294,908;  288,445;  291,825
350,797;  307,707;  302,616;  305,905
350,877;  295,441;  289,875;  294,705
350,957;  302,374;  297,635;  300,095
351,037;  302,408;  298,556;  303,455
351,117;  295,474;  296,276;  296,555
351,197;  308,274;  303,366;  306,305
351,277;  305,541;  300,556;  301,575
351,357;  316,074;  308,806;  314,445
351,437;  311,074;  306,105;  307,755
351,516;  319,174;  317,986;  318,355
351,596;  292,574;  292,896;  296,025
351,676;  291,674;  290,405;  294,265
351,756;  332,807;  323,426;  326,135
351,836;  311,941;  313,866;  317,935
351,916;  301,707;  297,905;  298,975
351,996;  312,174;  303,996;  305,265
352,076;  306,207;  303,486;  303,085
352,156;  321,141;  319,556;  320,405
352,235;  305,574;  301,255;  300,955
352,315;  314,341;  312,456;  314,415
352,395;  308,207;  308,206;  309,425
352,475;  316,508;  315,405;  320,955
352,555;  329,974;  330,236;  330,635
352,634;  332,374;  321,956;  326,705
352,714;  310,341;  302,595;  304,055
352,794;  355,974;  354,466;  358,075
352,874;  317,307;  314,685;  317,555
352,953;  337,041;  337,676;  339,095
353,033;  327,341;  319,306;  320,925
353,113;  332,674;  332,135;  336,575
353,193;  326,741;  328,046;  329,935
353,272;  338,774;  333,135;  334,365
353,352;  307,707;  307,035;  311,285
353,432;  343,608;  343,005;  347,495
353,511;  332,574;  326,185;  330,665
353,591;  367,241;  361,616;  362,555
353,671;  335,908;  331,926;  333,015
353,750;  331,174;  332,296;  331,275
353,830;  323,807;  313,646;  317,015
353,909;  341,641;  339,836;  343,655
353,989;  316,941;  317,385;  320,255
354,069;  322,474;  319,456;  319,155
354,148;  341,941;  335,035;  339,585
354,228;  319,807;  315,695;  316,905
354,307;  332,707;  329,405;  332,345
354,387;  322,374;  322,095;  322,965
354,466;  315,908;  311,635;  316,045
354,546;  341,408;  335,135;  337,645
354,625;  321,741;  319,815;  320,355
354,705;  327,774;  324,246;  326,865
354,784;  319,641;  316,445;  318,195
354,864;  323,241;  316,635;  317,385
354,943;  333,508;  333,695;  339,105
355,023;  319,108;  310,996;  312,285
355,102;  365,574;  362,866;  363,435
355,181;  318,741;  315,966;  318,045
355,261;  341,074;  338,056;  342,165
355,340;  311,874;  303,845;  307,115
355,420;  342,974;  340,105;  342,305
355,499;  329,341;  322,975;  325,635
355,578;  320,641;  315,276;  316,885
355,658;  336,274;  332,875;  333,745
355,737;  326,841;  317,576;  319,005
355,816;  328,408;  323,276;  324,605
355,896;  325,241;  316,026;  321,355
355,975;  308,341;  307,355;  310,055
356,054;  312,374;  311,935;  312,455
356,133;  295,241;  290,565;  293,305
356,213;  316,908;  324,845;  324,825
356,292;  310,908;  304,016;  309,325
356,371;  323,841;  314,146;  314,035
356,451;  324,674;  324,755;  327,685
356,530;  352,307;  349,496;  350,795
356,609;  320,174;  311,146;  315,535
356,688;  319,074;  316,475;  316,165
356,767;  309,408;  304,695;  309,855
356,846;  328,541;  327,035;  327,235
356,926;  347,574;  340,016;  343,965
357,005;  320,441;  318,345;  318,565
357,084;  306,908;  304,466;  308,385
357,163;  318,508;  317,706;  317,185
357,242;  322,941;  320,146;  319,515
357,321;  310,841;  314,496;  316,575
357,400;  324,707;  321,236;  318,865
357,479;  322,707;  317,725;  320,795
357,559;  330,374;  321,405;  325,705
357,638;  300,508;  300,616;  298,815
357,717;  315,641;  313,746;  311,555
357,796;  328,774;  329,266;  330,875
357,875;  317,874;  314,466;  313,455
357,954;  315,241;  310,155;  313,855
358,033;  317,541;  323,405;  320,935
358,112;  332,074;  329,966;  328,315
358,191;  316,774;  315,276;  318,965
358,270;  300,207;  295,505;  297,695
358,349;  323,074;  321,625;  323,725
358,428;  324,474;  322,445;  326,125
358,507;  319,508;  321,366;  325,105
358,585;  322,841;  320,355;  325,525
358,664;  338,841;  332,266;  334,505
358,743;  322,041;  323,776;  326,515
358,822;  341,774;  334,475;  338,195
358,901;  309,941;  309,176;  309,505
358,980;  316,774;  310,885;  313,735
359,059;  328,807;  328,616;  332,255
359,138;  330,341;  329,415;  328,565
359,216;  324,508;  322,225;  327,485
359,295;  311,741;  309,475;  309,515
359,374;  335,341;  330,026;  333,455
359,453;  320,608;  316,345;  320,885
359,532;  309,941;  304,526;  308,455
359,610;  318,508;  319,556;  323,285
359,689;  337,541;  331,116;  333,025
359,768;  318,974;  313,706;  315,305
359,847;  307,741;  302,065;  305,385
359,925;  312,608;  304,105;  307,215
360,004;  300,408;  299,565;  302,585
360,083;  322,341;  320,165;  321,795
360,161;  314,041;  305,676;  309,885
360,240;  296,841;  288,725;  291,455
360,319;  318,707;  318,276;  317,225
360,397;  329,441;  324,986;  331,265
360,476;  328,141;  318,296;  324,355
360,555;  347,941;  345,565;  346,835
360,633;  306,641;  304,456;  304,945
360,712;  316,807;  309,056;  311,825
360,790;  334,041;  330,065;  331,185
360,869;  313,741;  310,266;  313,085
360,948;  320,941;  322,466;  322,235
361,026;  302,941;  300,065;  301,245
361,105;  310,941;  306,116;  309,875
361,183;  328,641;  324,725;  326,345
361,262;  306,074;  302,375;  307,465
361,340;  310,841;  305,815;  306,875
361,419;  293,741;  289,896;  290,845
361,497;  344,707;  340,926;  346,955
361,576;  321,707;  317,736;  323,245
361,654;  350,608;  342,736;  343,615
361,733;  300,307;  297,366;  297,305
361,811;  334,274;  329,065;  331,875
361,890;  297,307;  292,595;  293,595
361,968;  315,174;  313,706;  316,715
362,046;  341,441;  335,296;  335,795
362,125;  349,807;  337,435;  340,865
362,203;  318,108;  314,635;  316,745
362,282;  334,174;  328,676;  334,675
362,360;  322,008;  318,315;  323,125
362,438;  323,074;  313,565;  317,495
362,517;  367,241;  357,725;  357,035
362,595;  345,641;  340,956;  345,025
362,673;  335,474;  334,576;  338,035
362,752;  331,774;  326,366;  329,445
362,830;  343,874;  343,155;  338,795
362,908;  329,307;  322,885;  326,315
362,986;  335,807;  333,595;  334,645
363,065;  325,974;  326,405;  330,985
363,143;  366,108;  359,875;  363,525
363,221;  323,574;  313,755;  319,675
363,299;  313,408;  315,845;  315,595
363,378;  330,807;  327,546;  328,495
363,456;  310,207;  304,326;  305,295
363,534;  327,441;  323,996;  327,895
363,612;  336,241;  327,546;  330,285
363,690;  340,341;  337,885;  341,915
363,769;  355,508;  349,336;  354,965
363,847;  338,041;  332,326;  333,935
363,925;  312,207;  303,095;  306,775
364,003;  360,874;  350,866;  351,845
364,081;  347,207;  336,345;  339,765
364,159;  344,441;  331,836;  334,695
364,237;  349,741;  341,276;  343,025
364,315;  328,707;  318,866;  320,765
364,393;  361,141;  350,935;  355,465
364,471;  344,474;  328,185;  329,975
364,549;  360,441;  333,026;  334,495
364,627;  353,508;  323,095;  327,065
364,705;  370,841;  311,135;  310,945
364,783;  440,908;  323,496;  332,235
364,861;  987,341;  331,396;  334,915
364,939; 3525,974;  314,086;  319,855
365,017;  807,174;  306,046;  310,735
365,095;  374,307;  322,116;  324,495
365,173;  382,974;  345,556;  349,605
365,251;  389,307;  341,535;  344,665
365,329;  534,574;  346,466;  345,195
365,407; 1150,541;  318,345;  321,385
365,485;  467,274;  344,826;  348,395
365,563;  355,941;  344,306;  346,815
365,641;  343,807;  331,896;  331,005
365,719;  347,374;  337,095;  336,965
365,796;  346,041;  334,926;  336,075
365,874;  355,774;  347,426;  349,165
365,952;  325,408;  309,516;  312,925
366,030;  347,508;  334,866;  333,525
366,108;  366,441;  326,345;  328,575
366,185;  618,141;  338,396;  343,695
366,263;  879,141;  334,646;  340,035
366,341;  381,641;  334,125;  339,925
366,419;  343,108;  331,535;  331,355
366,496;  351,207;  342,655;  345,225
366,574;  336,974;  325,826;  329,315
366,652;  355,141;  345,296;  349,635
366,730;  368,408;  365,475;  368,065
366,807;  337,508;  330,845;  334,945
366,885;  323,341;  321,135;  327,175
366,963;  340,341;  329,016;  331,635
367,040;  356,674;  345,815;  352,465
367,118;  337,374;  321,875;  325,205
367,196;  348,774;  341,896;  344,715
367,273;  339,041;  335,845;  338,245
367,351;  337,807;  328,155;  331,125
367,428;  361,307;  355,016;  356,915
367,506;  335,641;  329,225;  333,905
367,584;  368,508;  360,216;  363,085
367,661;  347,307;  341,785;  346,585
367,739;  334,941;  328,466;  334,835
367,816;  330,274;  320,345;  324,175
367,894;  342,008;  339,146;  345,755
367,971;  335,508;  329,885;  333,335
368,049;  355,207;  349,586;  353,435
368,126;  323,574;  314,625;  317,265
368,204;  355,008;  351,836;  352,775
368,281;  357,674;  353,225;  355,775
368,359;  359,508;  348,806;  354,965
368,436;  353,274;  342,385;  348,785
368,514;  357,608;  349,646;  351,035
368,591;  349,408;  343,486;  348,405
368,668;  348,941;  347,486;  351,455
368,746;  367,307;  358,556;  362,125
368,823;  346,374;  342,405;  345,515
368,901;  342,441;  339,046;  341,025
368,978;  359,641;  354,975;  361,925
369,055;  348,174;  343,826;  347,145
369,133;  370,008;  367,046;  368,725
369,210;  351,608;  339,206;  342,185
369,287;  371,174;  367,986;  371,205
369,365;  375,474;  368,896;  369,715
369,442;  351,241;  346,826;  351,135
369,519;  311,174;  306,396;  310,475
369,596;  371,707;  369,005;  372,695
369,674;  343,041;  336,526;  336,705
369,751;  368,807;  368,005;  369,405
369,828;  354,574;  350,366;  351,255
369,905;  353,707;  354,796;  358,705
369,983;  336,807;  329,826;  336,485
370,060;  339,008;  335,185;  336,165
370,137;  377,874;  371,595;  373,975
370,214;  344,474;  340,246;  340,845
370,291;  354,108;  347,845;  351,965
370,368;  352,674;  345,426;  349,675
370,446;  340,108;  335,716;  337,375
370,523;  339,508;  331,586;  338,615
370,600;  358,241;  350,706;  356,355
370,677;  354,408;  345,826;  349,525
370,754;  349,608;  341,706;  344,655
370,831;  347,307;  344,885;  347,665
370,908;  374,908;  368,556;  369,945
370,985;  329,141;  326,206;  327,885
371,062;  350,674;  346,635;  347,955
371,139;  364,108;  362,125;  364,815
371,216;  363,141;  357,496;  359,475
371,293;  351,574;  350,576;  350,305
371,370;  333,341;  328,806;  332,395
371,447;  360,641;  354,736;  355,835
371,524;  376,474;  374,685;  378,505
371,601;  374,141;  371,556;  374,285
371,678;  372,674;  374,306;  375,345
371,755;  354,574;  348,526;  348,275
371,832;  381,574;  374,526;  377,175
371,909;  340,874;  342,065;  344,605
371,986;  384,108;  376,505;  379,065
372,063;  350,141;  346,195;  348,745
372,140;  367,508;  354,056;  357,495
372,216;  365,141;  360,225;  360,935
372,293;  349,974;  341,945;  344,805
372,370;  372,174;  370,236;  372,635
372,447;  367,307;  361,646;  361,385
372,524;  349,874;  349,725;  352,115
372,601;  350,307;  353,236;  356,005
372,677;  340,941;  339,586;  339,035
372,754;  356,574;  347,516;  350,955
372,831;  358,074;  354,716;  356,955
372,908;  369,274;  368,496;  364,795
372,984;  363,841;  349,246;  356,035
373,061;  347,974;  342,046;  342,845
373,138;  351,974;  349,986;  354,465
373,215;  351,174;  345,155;  346,585
373,291;  355,074;  347,556;  353,415
373,368;  357,174;  353,516;  357,375
373,445;  354,374;  348,285;  348,395
373,521;  352,307;  349,216;  353,935
373,598;  345,074;  341,766;  343,845
373,675;  334,807;  332,646;  334,115
373,751;  351,908;  345,375;  354,195
373,828;  352,041;  341,076;  346,375
373,904;  395,908;  387,225;  391,935
373,981;  337,041;  332,516;  333,585
374,057;  357,408;  353,306;  355,945
374,134;  337,574;  331,706;  334,435
374,211;  351,707;  348,826;  351,835
374,287;  337,874;  338,565;  339,035
374,364;  366,241;  362,426;  365,335
374,440;  323,508;  319,035;  321,205
374,517;  368,108;  361,625;  366,995
374,593;  329,674;  326,896;  326,865
374,670;  339,807;  340,095;  342,905
374,746;  347,441;  346,915;  349,135
374,823;  370,374;  369,255;  368,775
374,899;  368,874;  366,836;  366,475
374,975;  340,508;  336,035;  341,495
375,052;  324,874;  319,776;  326,175
375,128;  332,874;  325,956;  331,675
375,205;  360,908;  353,665;  355,605
375,281;  341,241;  337,296;  336,395
375,357;  374,508;  361,026;  364,245
375,434;  334,941;  331,986;  338,045
375,510;  354,241;  347,755;  353,175
375,586;  353,574;  347,486;  349,845
375,663;  326,608;  321,926;  323,515
375,739;  358,241;  355,716;  358,675
375,815;  346,207;  346,366;  346,765
375,892;  349,408;  344,516;  348,555
375,968;  340,408;  331,605;  336,855
376,044;  336,074;  335,866;  339,405
376,120;  337,141;  332,535;  339,615
376,197;  357,108;  348,466;  352,185
376,273;  342,174;  340,516;  341,095
376,349;  381,774;  378,366;  379,125
376,425;  366,807;  362,935;  364,425
376,501;  349,841;  344,225;  347,555
376,578;  371,741;  362,885;  363,255
376,654;  383,874;  383,866;  382,945
376,730;  369,841;  360,266;  364,005
376,806;  380,741;  375,185;  376,845
376,882;  376,474;  377,176;  378,355
376,958;  373,374;  376,706;  373,325
377,034;  322,908;  319,695;  317,895
377,111;  370,441;  368,826;  369,285
377,187;  389,874;  390,845;  391,825
377,263;  389,141;  383,885;  384,725
377,339;  344,674;  341,445;  346,375
377,415;  370,341;  366,366;  365,685
377,491;  348,307;  342,885;  347,505
377,567;  366,941;  359,755;  360,685
377,643;  380,108;  380,076;  378,785
377,719;  371,474;  363,706;  367,845
377,795;  349,474;  345,725;  349,165
377,871;  367,374;  367,866;  370,355
377,947;  353,441;  348,236;  351,215
378,023;  350,841;  345,855;  349,075
378,099;  355,241;  349,035;  350,465
378,174;  373,341;  374,176;  374,825
378,250;  367,108;  363,105;  366,955
378,326;  368,741;  366,255;  370,045
378,402;  358,608;  357,685;  360,315
378,478;  362,408;  361,605;  365,295
378,554;  379,541;  370,396;  375,075
378,630;  366,941;  365,225;  365,285
378,706;  357,174;  358,076;  357,335
378,781;  396,908;  390,875;  394,875
378,857;  369,374;  363,185;  366,505
378,933;  363,574;  360,315;  365,855
379,009;  355,774;  351,426;  351,035
379,085;  395,274;  393,826;  391,725
379,160;  377,908;  377,246;  378,485
379,236;  373,008;  374,195;  376,655
379,312;  367,441;  359,915;  361,725
379,387;  359,707;  354,486;  355,105
379,463;  366,207;  359,836;  363,685
379,539;  376,074;  370,475;  373,395
379,615;  367,441;  359,056;  358,495
379,690;  398,241;  395,035;  398,755
379,766;  378,941;  373,276;  379,335
379,842;  397,307;  391,105;  391,375
379,917;  390,207;  380,935;  388,225
379,993;  377,774;  368,366;  373,385
380,068;  358,074;  359,236;  361,755
380,144;  387,174;  381,086;  383,405
380,220;  385,608;  382,086;  386,535
380,295;  359,141;  353,005;  355,035
380,371;  364,707;  359,935;  361,545
380,446;  376,641;  377,165;  381,125
380,522;  353,174;  348,766;  349,425
380,597;  364,274;  360,486;  359,965
380,673;  402,074;  390,456;  394,425
380,748;  366,841;  358,046;  358,445
380,824;  375,341;  367,676;  369,935
380,899;  391,707;  386,216;  388,425
380,975;  365,108;  365,475;  366,905
381,050;  353,608;  352,806;  352,825
381,126;  374,141;  370,526;  373,695
381,201;  405,241;  398,806;  402,495
381,277;  375,608;  373,435;  374,795
381,352;  392,041;  388,105;  390,855
381,427;  373,541;  372,586;  376,025
381,503;  377,274;  378,896;  379,385
381,578;  367,508;  360,605;  365,515
381,653;  371,574;  368,776;  372,375
381,729;  367,441;  361,535;  360,945
381,804;  369,974;  367,475;  368,805
381,879;  384,374;  383,306;  386,055
381,955;  360,008;  354,396;  356,545
382,030;  358,474;  356,556;  357,225
382,105;  376,041;  375,586;  372,555
382,181;  375,908;  367,466;  371,255
382,256;  375,841;  378,116;  374,765
382,331;  374,041;  367,216;  371,745
382,406;  352,541;  353,266;  357,745
382,482;  358,874;  361,315;  357,655
382,557;  368,574;  363,526;  366,745
382,632;  373,074;  370,595;  371,585
382,707;  362,474;  361,135;  365,615
382,782;  374,508;  361,516;  366,275
382,857;  361,941;  358,996;  361,035
382,933;  354,207;  351,776;  352,995
383,008;  347,374;  344,065;  345,165
383,083;  384,307;  376,866;  379,215
383,158;  382,341;  378,866;  381,615
383,233;  370,807;  362,385;  363,105
383,308;  364,574;  359,875;  362,675
383,383;  392,374;  389,445;  391,785
383,458;  363,941;  361,135;  360,475
383,533;  346,408;  342,456;  344,625
383,608;  397,108;  387,885;  390,385
383,683;  386,707;  385,046;  389,585
383,758;  386,541;  380,285;  380,925
383,833;  375,574;  370,296;  371,015
383,908;  346,641;  343,206;  342,165
383,983;  350,541;  346,296;  350,755
384,058;  360,774;  355,246;  357,655
384,133;  368,174;  368,185;  368,575
384,208;  378,674;  376,796;  379,565
384,283;  352,341;  348,736;  351,825
384,358;  387,408;  381,845;  387,485
384,433;  371,008;  357,496;  357,355
384,508;  372,941;  368,966;  373,895
384,583;  378,874;  373,725;  375,265
384,658;  370,874;  367,915;  371,275
384,732;  344,108;  339,456;  339,705
384,807;  373,008;  366,935;  369,005
384,882;  377,108;  371,246;  373,145
384,957;  374,141;  368,095;  371,985
385,032;  380,307;  375,426;  376,555
385,106;  371,541;  370,216;  371,515
385,181;  360,774;  351,385;  357,155
385,256;  367,874;  363,565;  366,745
385,331;  378,707;  371,935;  373,255
385,405;  384,074;  380,975;  381,445
385,480;  370,674;  365,695;  366,715
385,555;  408,741;  399,306;  400,405
385,630;  394,341;  390,956;  395,935
385,704;  376,541;  374,056;  377,105
385,779;  368,141;  364,405;  364,855
385,854;  375,274;  368,746;  369,975
385,928;  370,307;  363,016;  365,315
386,003;  406,641;  402,586;  405,115
386,078;  378,008;  372,466;  374,995
386,152;  401,274;  401,456;  401,815
386,227;  359,608;  357,646;  361,225
386,301;  384,408;  378,725;  380,385
386,376;  356,374;  348,695;  355,015
386,450;  381,474;  378,616;  381,145
386,525;  377,307;  373,556;  377,655
386,600;  388,441;  385,746;  385,925
386,674;  368,508;  364,076;  367,315
386,749;  377,241;  375,095;  381,315
386,823;  384,174;  377,435;  382,095
386,898;  378,041;  379,766;  380,535
386,972;  388,041;  380,966;  385,985
387,047;  374,707;  369,776;  374,355
387,121;  388,408;  379,695;  380,335
387,195;  365,508;  357,875;  359,895
387,270;  390,807;  385,625;  385,415
387,344;  414,274;  404,405;  407,055
387,419;  390,408;  385,665;  393,195
387,493;  378,807;  377,776;  379,825
387,567;  354,108;  355,005;  358,475
387,642;  404,574;  403,586;  405,945
387,716;  380,941;  369,565;  372,245
387,790;  372,174;  367,706;  371,225
387,865;  377,774;  372,806;  373,715
387,939;  409,074;  403,005;  404,415
388,013;  384,574;  384,806;  386,145
388,088;  373,874;  368,655;  370,085
388,162;  370,508;  370,135;  371,835
388,236;  376,674;  372,456;  375,275
388,310;  363,641;  361,966;  364,475
388,385;  404,474;  397,185;  400,845
388,459;  378,807;  379,996;  380,235
388,533;  369,274;  363,676;  362,565
388,607;  372,408;  366,776;  365,955
388,682;  377,741;  374,806;  375,745
388,756;  360,974;  355,035;  360,825
388,830;  393,541;  390,255;  394,075
388,904;  384,641;  378,276;  385,365
388,978;  369,474;  369,535;  370,165
389,052;  379,041;  375,396;  377,225
389,126;  373,274;  370,435;  376,195
389,200;  375,508;  372,665;  377,205
389,275;  367,241;  369,266;  367,695
389,349;  376,008;  374,695;  373,065
389,423;  369,874;  369,565;  369,375
389,497;  387,341;  380,966;  383,775
389,571;  367,941;  368,665;  370,175
389,645;  378,008;  376,806;  379,805
389,719;  373,774;  369,396;  372,955
389,793;  353,174;  346,576;  348,725
389,867;  408,108;  398,035;  402,955
389,941;  383,174;  375,375;  377,215
390,015;  361,374;  361,135;  364,515
390,089;  366,541;  360,426;  362,085
390,163;  373,108;  372,456;  375,935
390,237;  377,474;  375,435;  379,295
390,310;  386,807;  379,276;  382,155
390,384;  385,441;  376,546;  383,625
390,458;  406,474;  400,826;  403,825
390,532;  388,241;  383,496;  386,725
390,606;  370,174;  365,945;  369,265
390,680;  374,974;  366,466;  368,115
390,754;  369,707;  366,385;  368,915
390,827;  395,174;  388,276;  392,645
390,901;  395,608;  391,855;  396,215
390,975;  372,408;  368,905;  370,295
391,049;  365,374;  366,366;  364,315
391,123;  367,241;  362,685;  363,545
391,196;  366,608;  367,635;  367,855
391,270;  379,207;  378,426;  377,835
391,344;  365,841;  360,056;  359,585
391,418;  374,508;  372,975;  372,155
391,491;  361,441;  362,655;  363,995
391,565;  364,341;  362,065;  366,105
391,639;  402,408;  394,345;  397,875
391,712;  385,307;  385,815;  384,375
391,786;  390,274;  382,646;  386,785
391,860;  372,707;  369,385;  370,925
391,933;  377,741;  369,935;  371,115
392,007;  377,207;  371,355;  380,875
392,081;  406,474;  396,456;  399,955
392,154;  385,908;  377,845;  383,895
392,228;  398,074;  391,366;  394,685
392,301;  380,707;  376,266;  381,275
392,375;  394,008;  386,076;  389,995
392,448;  383,408;  379,516;  384,445
392,522;  374,574;  376,236;  379,965
392,595;  376,374;  370,105;  374,245
392,669;  380,674;  376,116;  379,675
392,742;  390,707;  390,975;  396,915
392,816;  405,141;  397,296;  400,205
392,889;  399,441;  392,746;  396,605
392,963;  414,608;  409,095;  409,745
393,036;  387,574;  385,345;  386,785
393,110;  404,441;  391,155;  393,885
393,183;  405,707;  400,836;  405,685
393,257;  418,641;  415,456;  417,745
393,330;  371,341;  365,845;  369,745
393,403;  394,341;  390,486;  395,585
393,477;  358,174;  355,845;  358,875
393,550;  392,508;  390,306;  395,545
393,623;  393,608;  388,396;  388,295
393,697;  410,707;  406,056;  406,835
393,770;  379,307;  376,556;  379,065
393,843;  409,541;  402,996;  406,915
393,917;  403,108;  394,216;  398,485
393,990;  417,108;  409,996;  410,125
394,063;  398,408;  386,855;  392,225
394,136;  392,474;  388,635;  391,675
394,210;  398,641;  393,336;  395,655
394,283;  408,408;  402,785;  407,175
394,356;  406,274;  399,165;  399,175
394,429;  403,374;  396,935;  398,825
394,502;  387,374;  382,016;  383,895
394,576;  418,508;  414,125;  414,715
394,649;  379,241;  378,776;  377,865
394,722;  409,874;  400,896;  403,785
394,795;  414,841;  408,306;  413,185
394,868;  387,541;  384,135;  385,985
394,941;  370,974;  376,435;  375,265
395,014;  422,641;  417,056;  420,205
395,088;  404,008;  398,956;  399,175
395,161;  404,374;  395,466;  398,685
395,234;  415,341;  409,236;  410,735
395,307;  404,008;  402,236;  405,525
395,380;  389,874;  384,736;  385,325
395,453;  440,741;  436,845;  437,285
395,526;  411,541;  408,385;  412,495
395,599;  428,141;  426,926;  430,645
395,672;  395,874;  394,586;  394,895
395,745;  418,974;  417,125;  421,075
395,818;  378,674;  376,306;  378,615
395,891;  390,408;  385,635;  387,695
395,964;  412,074;  415,896;  414,885
396,036;  390,608;  387,486;  384,175
396,109;  398,441;  392,076;  395,785
396,182;  401,508;  396,766;  399,545
396,255;  401,408;  399,225;  398,845
396,328;  411,374;  410,065;  411,075
396,401;  372,074;  370,746;  371,295
396,474;  384,108;  381,086;  381,505
396,547;  398,508;  397,046;  400,645
396,619;  392,807;  390,755;  390,525
396,692;  413,341;  404,866;  411,355
396,765;  380,008;  370,616;  372,985
396,838;  394,641;  388,225;  388,295
396,911;  376,541;  371,266;  373,155
396,983;  396,307;  392,496;  392,385
397,056;  374,941;  372,355;  374,095
397,129;  390,274;  387,796;  389,615
397,201;  390,274;  391,556;  389,605
397,274;  391,874;  385,366;  389,335
397,347;  364,508;  363,345;  363,665
397,420;  387,541;  384,605;  387,195
397,492;  391,741;  388,296;  388,685
397,565;  381,774;  375,915;  379,595
397,637;  366,541;  369,366;  372,085
397,710;  356,041;  351,586;  350,295
397,783;  416,908;  412,855;  414,805
397,855;  351,408;  345,345;  347,055
397,928;  376,874;  368,336;  371,095
398,000;  399,774;  395,866;  396,635
398,073;  385,641;  386,546;  384,745
398,146;  383,807;  376,706;  377,295
398,218;  393,141;  390,255;  393,135
398,291;  395,374;  385,806;  387,915
398,363;  385,307;  381,755;  384,505
398,436;  373,774;  369,855;  374,675
398,508;  383,207;  383,266;  385,345
398,581;  379,574;  378,206;  380,565
398,653;  375,241;  374,255;  373,825
398,726;  382,341;  378,535;  383,385
398,798;  393,041;  383,306;  387,885
398,870;  392,941;  391,116;  396,905
398,943;  369,241;  366,236;  369,775
399,015;  371,874;  365,676;  368,815
399,088;  389,941;  389,655;  388,435
399,160;  375,008;  368,076;  368,815
399,232;  355,341;  350,405;  352,095
399,305;  375,108;  368,435;  372,935
399,377;  380,741;  377,905;  377,535
399,449;  396,941;  386,246;  388,735
399,522;  427,508;  421,875;  424,965
399,594;  367,074;  364,576;  365,315
399,666;  389,574;  382,625;  385,235
399,738;  374,141;  373,336;  375,225
399,811;  383,374;  376,736;  377,025
399,883;  391,141;  386,105;  388,295
399,955;  387,041;  389,855;  389,195
400,027;  345,908;  345,945;  349,545
400,100;  408,641;  407,366;  409,275
400,172;  349,008;  348,296;  349,645
400,244;  379,274;  378,225;  381,195
400,316;  394,807;  393,016;  393,505
400,388;  392,074;  389,385;  393,005
400,460;  372,508;  359,306;  364,605
400,532;  353,374;  350,826;  351,835
400,605;  383,908;  377,736;  384,975
400,677;  401,874;  402,285;  404,675
400,749;  400,374;  395,685;  398,125
400,821;  392,074;  385,956;  388,105
400,893;  379,241;  379,445;  382,305
400,965;  391,474;  386,755;  392,785
401,037;  387,807;  387,565;  392,525
401,109;  376,341;  370,725;  373,835
401,181;  390,807;  380,716;  385,485

