pru
Integration time [ms]:   0,150
Averaging Nr. [scans]: 100
Smoothing Nr. [pixels]: 0
Data measured with spectrometer [name]: 7416147SP
Wave   ;Sample   ;Dark     ;Reference
[nm]   ;[counts] ;[counts] ;[counts] 

230,218;  292,345;  290,315;  293,845
230,311;  317,825;  319,885;  318,565
230,404;  312,005;  309,855;  312,875
230,497;  315,425;  317,385;  315,715
230,591;  338,405;  333,426;  335,355
230,684;  328,305;  326,486;  329,355
230,777;  316,975;  311,736;  314,765
230,870;  317,565;  313,326;  316,955
230,964;  311,185;  310,885;  314,745
231,057;  342,105;  342,496;  343,475
231,150;  331,635;  331,695;  332,715
231,243;  328,575;  330,635;  332,775
231,336;  333,115;  331,375;  331,335
231,430;  321,615;  316,496;  317,715
231,523;  329,225;  324,516;  326,785
231,616;  307,895;  305,445;  309,685
231,709;  345,905;  328,065;  330,025
231,802;  316,405;  300,945;  301,885
231,895;  315,455;  299,836;  300,315
231,988;  330,785;  315,655;  318,535
232,082;  314,265;  298,155;  302,425
232,175;  316,725;  302,155;  306,175
232,268;  319,265;  301,266;  305,345
232,361;  318,535;  304,806;  307,515
232,454;  333,545;  322,396;  323,025
232,547;  335,495;  318,716;  322,655
232,640;  309,695;  296,766;  294,035
232,733;  334,075;  314,116;  323,045
232,826;  305,265;  288,915;  295,035
232,919;  328,095;  313,826;  312,665
233,012;  304,555;  293,646;  292,775
233,105;  315,505;  294,766;  298,815
233,199;  315,365;  299,875;  304,045
233,292;  308,305;  293,475;  296,235
233,385;  275,905;  263,426;  262,225
233,478;  312,115;  293,885;  295,685
233,571;  339,065;  324,586;  327,675
233,664;  321,155;  305,996;  308,435
233,757;  297,405;  280,796;  281,395
233,850;  298,035;  282,255;  285,825
233,943;  307,615;  290,896;  292,195
234,035;  319,275;  300,576;  302,355
234,128;  295,895;  281,836;  283,945
234,221;  309,705;  297,665;  298,245
234,314;  324,615;  304,915;  311,975
234,407;  322,845;  302,935;  309,075
234,500;  297,915;  277,625;  281,875
234,593;  302,725;  287,095;  285,735
234,686;  310,295;  293,746;  293,765
234,779;  307,965;  291,266;  293,165
234,872;  296,705;  281,806;  281,565
234,965;  305,715;  292,806;  290,795
235,058;  289,415;  274,155;  276,215
235,150;  304,855;  285,776;  290,805
235,243;  298,505;  282,736;  284,425
235,336;  319,985;  300,695;  304,545
235,429;  286,675;  273,646;  272,515
235,522;  348,425;  330,996;  335,445
235,615;  279,555;  262,276;  265,145
235,707;  296,725;  282,415;  282,335
235,800;  303,285;  289,815;  290,515
235,893;  305,885;  289,956;  292,955
235,986;  313,075;  298,266;  299,325
236,079;  301,085;  286,586;  291,125
236,171;  286,555;  270,725;  271,865
236,264;  327,325;  312,635;  313,275
236,357;  306,195;  290,986;  293,865
236,450;  326,625;  315,225;  317,215
236,542;  285,005;  267,065;  272,575
236,635;  325,325;  313,546;  316,385
236,728;  303,345;  285,516;  288,115
236,821;  297,845;  280,165;  283,715
236,913;  289,555;  277,896;  276,315
237,006;  283,795;  271,605;  275,435
237,099;  298,625;  283,896;  285,575
237,191;  315,645;  298,796;  300,225
237,284;  285,825;  267,896;  272,995
237,377;  310,585;  294,725;  297,495
237,470;  298,815;  285,415;  287,875
237,562;  295,515;  276,866;  275,785
237,655;  339,265;  320,945;  324,565
237,747;  311,565;  292,695;  295,845
237,840;  332,115;  313,086;  314,435
237,933;  318,065;  300,445;  301,555
238,025;  319,165;  301,415;  301,595
238,118;  297,635;  282,456;  287,755
238,211;  286,965;  268,155;  272,375
238,303;  288,565;  272,296;  273,415
238,396;  282,845;  268,065;  271,945
238,488;  306,285;  292,625;  291,075
238,581;  301,255;  287,855;  289,445
238,673;  303,725;  285,766;  286,865
238,766;  301,495;  282,635;  283,185
238,859;  290,515;  273,586;  276,105
238,951;  294,845;  281,095;  282,835
239,044;  291,945;  276,496;  279,525
239,136;  286,315;  269,035;  271,705
239,229;  297,105;  280,665;  283,435
239,321;  287,385;  271,255;  276,105
239,414;  308,055;  289,875;  292,345
239,506;  300,265;  284,625;  290,655
239,599;  333,945;  316,315;  315,935
239,691;  303,735;  287,945;  287,755
239,784;  320,245;  301,926;  304,175
239,876;  310,635;  295,005;  294,715
239,969;  305,755;  284,426;  288,635
240,061;  291,515;  269,505;  272,655
240,153;  296,875;  276,776;  278,405
240,246;  304,755;  287,635;  287,925
240,338;  331,795;  315,285;  314,405
240,431;  286,325;  268,896;  270,455
240,523;  285,495;  269,315;  270,665
240,615;  314,305;  299,086;  301,495
240,708;  325,935;  309,945;  312,145
240,800;  303,065;  286,956;  289,175
240,893;  290,935;  272,216;  274,965
240,985;  307,095;  286,116;  289,995
241,077;  284,865;  269,866;  271,905
241,170;  321,915;  300,355;  300,805
241,262;  305,755;  293,695;  290,825
241,354;  273,395;  252,305;  253,985
241,447;  297,835;  281,326;  283,905
241,539;  287,295;  266,746;  270,745
241,631;  334,495;  314,366;  317,275
241,724;  277,735;  259,135;  260,655
241,816;  295,615;  279,385;  281,545
241,908;  296,205;  275,056;  280,445
242,000;  294,435;  277,625;  279,505
242,093;  296,365;  277,725;  280,745
242,185;  296,235;  277,736;  277,535
242,277;  290,735;  274,695;  277,115
242,369;  298,495;  282,146;  286,335
242,462;  291,905;  274,405;  274,215
242,554;  294,695;  277,146;  281,105
242,646;  300,085;  283,146;  286,575
242,738;  323,125;  303,255;  307,195
242,830;  277,085;  259,026;  260,415
242,923;  313,745;  297,035;  299,015
243,015;  285,795;  268,655;  266,675
243,107;  289,195;  267,676;  271,255
243,199;  294,195;  276,345;  278,365
243,291;  291,275;  272,125;  276,215
243,383;  269,945;  254,826;  256,465
243,476;  282,175;  269,435;  268,005
243,568;  299,815;  280,915;  284,885
243,660;  289,795;  273,385;  279,575
243,752;  300,255;  279,796;  287,275
243,844;  312,575;  300,766;  302,705
243,936;  305,805;  291,956;  293,555
244,028;  317,255;  304,796;  307,475
244,120;  266,985;  254,346;  255,525
244,212;  307,585;  293,826;  293,755
244,305;  282,935;  268,496;  267,935
244,397;  303,985;  289,165;  291,675
244,489;  322,025;  304,276;  307,925
244,581;  316,235;  299,255;  300,795
244,673;  296,325;  281,806;  283,225
244,765;  305,415;  286,035;  290,565
244,857;  302,265;  284,986;  287,335
244,949;  305,895;  283,956;  284,945
245,041;  264,765;  250,865;  255,005
245,133;  309,245;  293,695;  296,625
245,225;  295,705;  277,915;  280,695
245,317;  303,195;  289,456;  289,025
245,409;  284,765;  263,755;  269,375
245,501;  302,115;  288,496;  293,045
245,593;  304,975;  286,255;  290,055
245,685;  298,425;  285,405;  288,735
245,776;  299,895;  285,945;  287,235
245,868;  283,135;  271,276;  272,565
245,960;  276,825;  265,875;  263,405
246,052;  322,215;  310,766;  310,445
246,144;  306,565;  294,165;  294,205
246,236;  294,335;  283,576;  283,565
246,328;  304,455;  291,345;  293,965
246,420;  290,935;  279,746;  280,855
246,512;  322,455;  308,236;  310,455
246,604;  298,355;  282,526;  286,825
246,695;  284,535;  273,345;  272,135
246,787;  313,665;  293,526;  301,145
246,879;  306,605;  292,716;  297,145
246,971;  311,785;  299,276;  300,965
247,063;  289,825;  273,255;  278,605
247,155;  310,395;  294,516;  297,195
247,246;  299,165;  283,266;  283,715
247,338;  305,085;  288,116;  294,265
247,430;  315,755;  299,945;  303,475
247,522;  313,545;  297,546;  300,555
247,613;  314,335;  296,586;  299,675
247,705;  307,995;  286,896;  288,445
247,797;  327,295;  305,776;  307,475
247,889;  318,195;  294,706;  295,475
247,980;  322,275;  285,676;  291,995
248,072;  328,715;  282,845;  285,895
248,164;  349,325;  293,216;  298,385
248,256;  303,045;  271,366;  274,105
248,347;  330,615;  309,785;  311,065
248,439;  299,945;  283,165;  282,675
248,531;  317,015;  303,885;  304,835
248,622;  322,235;  307,206;  308,325
248,714;  292,175;  276,945;  278,365
248,806;  310,265;  293,655;  298,015
248,897;  307,565;  291,535;  292,985
248,989;  279,465;  263,956;  263,855
249,081;  297,135;  283,355;  284,905
249,172;  306,985;  289,926;  295,135
249,264;  291,535;  272,076;  273,435
249,356;  287,855;  269,326;  273,745
249,447;  301,615;  282,176;  284,525
249,539;  299,615;  283,086;  284,645
249,630;  308,305;  289,875;  288,495
249,722;  334,275;  313,276;  315,395
249,813;  302,245;  280,496;  284,125
249,905;  310,755;  289,426;  293,665
249,997;  301,435;  281,445;  280,615
250,088;  306,535;  282,255;  288,985
250,180;  305,205;  283,695;  284,575
250,271;  302,525;  281,195;  280,335
250,363;  340,375;  319,105;  320,755
250,454;  296,355;  273,035;  275,615
250,546;  313,245;  285,926;  289,415
250,637;  285,995;  264,445;  261,845
250,729;  296,865;  266,505;  269,555
250,820;  317,925;  289,915;  292,965
250,912;  288,765;  262,355;  267,085
251,003;  302,805;  278,396;  280,475
251,095;  307,465;  282,086;  284,555
251,186;  298,975;  271,415;  274,775
251,277;  301,345;  271,986;  275,265
251,369;  302,175;  275,975;  275,105
251,460;  300,585;  271,456;  273,815
251,552;  311,795;  278,475;  279,655
251,643;  305,285;  268,796;  267,375
251,735;  308,375;  265,246;  267,375
251,826;  298,685;  258,016;  263,245
251,917;  331,745;  278,035;  279,115
252,009;  329,755;  273,396;  275,605
252,100;  332,765;  281,426;  283,345
252,191;  355,365;  289,996;  292,015
252,283;  345,265;  265,095;  267,705
252,374;  373,215;  278,296;  278,375
252,465;  395,765;  295,405;  298,605
252,557;  394,615;  283,576;  286,365
252,648;  392,795;  265,146;  268,635
252,739;  429,005;  280,516;  282,125
252,831;  428,175;  270,836;  280,355
252,922;  459,265;  282,296;  280,045
253,013;  510,635;  273,956;  284,285
253,104;  569,995;  270,076;  270,335
253,196;  686,905;  271,366;  271,175
253,287;  846,015;  281,836;  277,135
253,378; 1242,105;  276,276;  277,975
253,469; 3844,105;  272,385;  276,445
253,561;21769,645;  273,496;  278,855
253,652;43271,984;  282,266;  280,015
253,743; 6262,725;  276,216;  280,985
253,834;  625,865;  259,146;  265,875
253,926;  505,655;  262,605;  267,485
254,017;  479,695;  284,236;  290,235
254,108;  454,735;  291,836;  290,565
254,199;  433,455;  285,326;  291,185
254,290;  438,685;  312,725;  313,865
254,381;  415,705;  287,076;  291,155
254,472;  414,275;  291,935;  300,495
254,564;  414,025;  312,766;  307,565
254,655;  392,675;  304,755;  308,105
254,746;  348,955;  264,896;  264,025
254,837;  384,375;  293,105;  298,435
254,928;  359,105;  266,836;  271,975
255,019;  367,905;  283,505;  286,805
255,110;  368,615;  300,165;  301,665
255,201;  357,515;  281,155;  287,655
255,292;  380,115;  312,706;  316,275
255,383;  350,765;  275,785;  275,725
255,474;  343,595;  273,306;  273,095
255,566;  351,185;  283,926;  286,645
255,657;  345,295;  298,556;  302,445
255,748;  319,655;  271,415;  278,125
255,839;  324,935;  280,695;  282,485
255,930;  330,905;  287,866;  289,735
256,021;  336,845;  298,845;  298,115
256,112;  319,545;  278,456;  278,735
256,203;  346,395;  311,866;  313,365
256,294;  328,645;  293,496;  299,575
256,384;  311,705;  270,565;  275,715
256,475;  316,835;  290,996;  294,595
256,566;  306,555;  281,246;  287,825
256,657;  300,625;  278,945;  278,915
256,748;  304,015;  281,285;  284,675
256,839;  295,485;  274,426;  273,555
256,930;  302,385;  279,165;  283,055
257,021;  326,025;  304,155;  306,465
257,112;  321,995;  304,926;  309,235
257,203;  277,285;  258,445;  259,825
257,294;  276,465;  254,465;  262,175
257,385;  304,705;  288,526;  294,205
257,475;  301,095;  279,135;  278,545
257,566;  306,305;  287,586;  292,255
257,657;  291,505;  269,595;  270,025
257,748;  291,115;  275,935;  276,095
257,839;  297,865;  287,915;  286,025
257,930;  306,185;  285,736;  290,395
258,020;  283,345;  269,716;  271,535
258,111;  278,425;  262,225;  263,255
258,202;  303,865;  288,326;  289,935
258,293;  293,195;  284,655;  285,305
258,384;  320,095;  305,595;  307,665
258,474;  302,335;  288,676;  291,995
258,565;  287,025;  271,635;  273,435
258,656;  305,575;  292,966;  295,145
258,747;  285,655;  271,475;  275,425
258,837;  285,605;  274,246;  273,695
258,928;  289,575;  275,785;  278,605
259,019;  283,505;  268,415;  270,595
259,109;  282,645;  269,685;  269,425
259,200;  298,775;  286,105;  289,815
259,291;  283,395;  269,975;  271,655
259,381;  305,385;  293,026;  295,635
259,472;  305,265;  295,796;  296,545
259,563;  315,555;  303,065;  305,845
259,653;  289,335;  278,296;  281,385
259,744;  278,835;  268,826;  267,735
259,835;  310,335;  300,975;  302,815
259,925;  284,255;  271,505;  277,075
260,016;  296,965;  286,746;  287,585
260,107;  268,555;  258,035;  264,715
260,197;  291,495;  283,975;  286,325
260,288;  285,745;  274,565;  279,155
260,378;  278,985;  267,195;  271,275
260,469;  298,385;  285,915;  288,765
260,560;  277,825;  266,146;  269,495
260,650;  280,235;  271,736;  275,665
260,741;  288,515;  276,366;  279,035
260,831;  283,515;  272,855;  275,905
260,922;  277,355;  266,206;  269,545
261,012;  281,765;  277,665;  278,255
261,103;  313,235;  301,785;  302,875
261,193;  309,595;  302,086;  303,915
261,284;  278,825;  271,806;  273,005
261,374;  307,475;  296,385;  303,855
261,465;  297,625;  287,755;  289,435
261,555;  288,355;  282,255;  280,715
261,646;  300,825;  292,475;  294,375
261,736;  297,505;  287,435;  290,535
261,827;  291,495;  283,716;  284,935
261,917;  321,175;  311,736;  311,595
262,007;  295,825;  283,986;  288,075
262,098;  291,375;  289,445;  287,725
262,188;  336,035;  326,655;  333,475
262,279;  307,175;  300,185;  299,795
262,369;  295,805;  286,285;  289,225
262,459;  296,965;  288,246;  290,365
262,550;  308,295;  303,266;  301,565
262,640;  280,525;  273,005;  276,555
262,731;  308,205;  300,935;  299,335
262,821;  317,045;  310,535;  312,255
262,911;  306,035;  297,875;  298,285
263,002;  295,865;  289,625;  290,825
263,092;  307,435;  303,956;  306,295
263,182;  292,935;  284,806;  285,755
263,273;  291,735;  285,426;  289,395
263,363;  308,135;  300,746;  299,385
263,453;  275,445;  267,375;  268,605
263,543;  299,185;  289,815;  289,615
263,634;  274,085;  266,516;  266,365
263,724;  300,755;  292,586;  293,065
263,814;  315,235;  308,706;  308,885
263,904;  291,665;  281,966;  285,905
263,995;  329,375;  322,276;  322,325
264,085;  302,315;  295,855;  294,575
264,175;  301,315;  296,706;  296,385
264,265;  325,985;  321,105;  321,865
264,356;  276,965;  270,466;  274,385
264,446;  317,805;  308,996;  307,575
264,536;  300,555;  294,026;  297,515
264,626;  321,515;  318,486;  320,175
264,716;  307,255;  298,435;  303,275
264,806;  318,065;  308,776;  310,415
264,897;  266,585;  258,135;  258,615
264,987;  311,635;  303,535;  304,475
265,077;  316,465;  287,046;  292,545
265,167;  377,695;  310,216;  311,575
265,257;  336,905;  290,445;  290,535
265,347;  333,575;  294,336;  295,795
265,437;  323,185;  296,176;  300,635
265,527;  318,705;  293,155;  294,765
265,617;  286,985;  279,875;  285,145
265,708;  322,045;  314,216;  314,825
265,798;  315,205;  305,415;  307,055
265,888;  307,975;  300,716;  305,545
265,978;  300,375;  294,496;  295,825
266,068;  317,375;  310,155;  315,855
266,158;  301,045;  294,005;  297,205
266,248;  279,885;  274,016;  276,865
266,338;  316,225;  313,035;  314,815
266,428;  303,465;  300,635;  302,655
266,518;  317,885;  311,405;  315,615
266,608;  305,385;  299,725;  294,215
266,698;  279,405;  273,586;  276,245
266,788;  281,785;  274,456;  277,745
266,878;  335,545;  325,776;  330,865
266,968;  313,635;  306,725;  309,425
267,058;  305,315;  297,375;  302,895
267,147;  310,365;  301,845;  302,905
267,237;  299,825;  291,815;  295,765
267,327;  294,025;  286,755;  287,895
267,417;  307,685;  301,225;  303,385
267,507;  298,335;  292,176;  294,215
267,597;  290,205;  282,026;  283,655
267,687;  290,295;  285,165;  287,755
267,777;  289,815;  283,986;  284,615
267,867;  317,725;  312,125;  312,585
267,956;  308,445;  302,466;  304,005
268,046;  312,625;  305,466;  310,865
268,136;  301,005;  296,875;  298,905
268,226;  283,605;  274,885;  274,965
268,316;  285,225;  280,766;  280,845
268,406;  295,815;  289,516;  287,595
268,495;  289,935;  284,415;  287,935
268,585;  312,295;  306,716;  309,605
268,675;  289,115;  284,336;  285,535
268,765;  302,995;  296,355;  300,115
268,854;  291,695;  285,935;  286,715
268,944;  298,105;  291,646;  293,805
269,034;  288,845;  283,986;  289,715
269,124;  295,355;  287,216;  290,705
269,213;  291,265;  286,336;  285,525
269,303;  298,025;  290,466;  288,585
269,393;  303,315;  299,845;  298,345
269,483;  305,365;  300,966;  302,735
269,572;  288,435;  282,875;  284,665
269,662;  287,685;  276,105;  283,315
269,752;  319,255;  312,736;  315,705
269,841;  276,095;  266,046;  269,455
269,931;  288,125;  281,586;  283,075
270,021;  306,305;  300,766;  304,675
270,110;  291,915;  285,695;  288,925
270,200;  301,815;  291,665;  299,445
270,289;  284,655;  280,785;  281,105
270,379;  307,105;  301,466;  302,775
270,469;  297,885;  290,556;  289,955
270,558;  307,825;  303,655;  302,185
270,648;  289,835;  282,785;  284,885
270,737;  295,295;  288,526;  291,525
270,827;  316,595;  310,185;  313,455
270,916;  296,185;  286,935;  289,915
271,006;  299,325;  293,475;  292,885
271,096;  322,275;  317,005;  317,215
271,185;  294,035;  289,896;  289,145
271,275;  310,415;  300,706;  303,575
271,364;  284,415;  281,535;  285,725
271,454;  318,015;  308,255;  315,275
271,543;  298,325;  296,935;  297,745
271,633;  299,065;  293,926;  292,835
271,722;  297,845;  292,255;  296,455
271,812;  291,775;  286,296;  289,275
271,901;  298,315;  292,326;  293,765
271,990;  295,745;  291,836;  290,915
272,080;  300,055;  290,635;  294,915
272,169;  303,205;  301,905;  302,555
272,259;  294,845;  293,225;  292,695
272,348;  310,085;  305,796;  308,535
272,438;  297,625;  296,935;  293,635
272,527;  310,345;  303,996;  304,365
272,616;  307,885;  301,866;  305,295
272,706;  329,985;  320,935;  323,195
272,795;  321,345;  314,076;  315,755
272,884;  300,345;  297,076;  299,515
272,974;  323,165;  317,975;  319,965
273,063;  340,915;  338,206;  337,765
273,152;  311,785;  310,306;  307,735
273,242;  328,005;  320,276;  324,915
273,331;  325,515;  319,315;  322,835
273,420;  312,255;  301,105;  310,255
273,510;  311,945;  307,355;  308,155
273,599;  307,785;  303,255;  306,195
273,688;  308,485;  302,605;  301,885
273,778;  287,445;  285,065;  287,095
273,867;  324,965;  320,266;  317,015
273,956;  308,175;  303,725;  303,805
274,045;  278,675;  273,966;  275,965
274,135;  308,325;  303,905;  305,375
274,224;  295,815;  286,516;  290,045
274,313;  309,945;  305,586;  307,745
274,402;  287,815;  284,796;  287,085
274,491;  318,015;  310,975;  312,995
274,581;  306,595;  301,415;  302,765
274,670;  299,075;  293,146;  294,385
274,759;  304,195;  299,405;  300,435
274,848;  283,015;  276,655;  279,925
274,937;  293,535;  289,945;  287,635
275,026;  290,785;  285,616;  287,835
275,116;  326,235;  316,415;  315,805
275,205;  292,635;  266,926;  271,135
275,294;  331,675;  302,315;  304,335
275,383;  305,565;  299,905;  297,985
275,472;  296,935;  290,005;  290,825
275,561;  294,685;  290,505;  290,285
275,650;  313,325;  306,046;  306,435
275,739;  299,515;  294,776;  297,985
275,828;  280,635;  274,635;  277,965
275,917;  317,205;  312,065;  306,825
276,006;  302,205;  295,426;  296,835
276,095;  300,715;  294,526;  298,665
276,184;  312,675;  309,556;  307,945
276,273;  308,705;  303,105;  304,505
276,362;  280,785;  275,896;  278,535
276,451;  296,935;  291,306;  291,915
276,540;  298,545;  295,896;  296,105
276,629;  294,255;  292,576;  293,225
276,718;  274,595;  270,695;  274,545
276,807;  277,535;  271,625;  274,825
276,896;  288,895;  280,526;  284,495
276,985;  289,405;  283,616;  289,365
277,074;  303,775;  299,105;  300,525
277,163;  300,135;  294,746;  299,085
277,252;  279,465;  279,646;  276,465
277,341;  290,465;  281,236;  289,265
277,430;  281,415;  276,845;  279,355
277,519;  307,685;  298,956;  301,695
277,608;  272,815;  266,546;  267,775
277,696;  273,515;  266,975;  269,445
277,785;  288,445;  284,095;  283,485
277,874;  303,055;  299,605;  296,795
277,963;  292,945;  288,155;  289,995
278,052;  270,115;  264,776;  265,525
278,141;  295,885;  288,415;  290,745
278,229;  298,355;  290,146;  291,935
278,318;  275,305;  268,236;  271,495
278,407;  292,175;  285,576;  285,935
278,496;  295,695;  289,915;  291,965
278,585;  306,805;  300,486;  302,275
278,673;  268,675;  263,836;  266,715
278,762;  272,625;  266,176;  270,485
278,851;  291,475;  285,496;  286,035
278,940;  305,125;  303,685;  303,305
279,028;  302,455;  296,306;  299,585
279,117;  292,715;  282,725;  286,655
279,206;  286,735;  279,475;  284,105
279,294;  285,245;  284,396;  286,665
279,383;  294,455;  286,646;  287,335
279,472;  303,275;  298,095;  298,295
279,561;  285,925;  283,355;  284,975
279,649;  312,555;  308,535;  308,935
279,738;  265,535;  255,566;  255,215
279,827;  312,475;  306,785;  308,805
279,915;  281,405;  275,285;  276,335
280,004;  294,945;  286,565;  288,905
280,092;  312,945;  305,236;  306,635
280,181;  290,465;  280,516;  282,605
280,270;  296,785;  277,866;  281,595
280,358;  308,605;  291,366;  288,915
280,447;  276,235;  261,415;  264,455
280,535;  284,855;  276,016;  275,945
280,624;  283,895;  274,185;  276,805
280,713;  288,765;  277,146;  283,385
280,801;  302,185;  293,116;  293,805
280,890;  297,185;  289,716;  295,475
280,978;  286,845;  280,755;  281,945
281,067;  258,395;  250,676;  255,865
281,155;  283,105;  274,855;  275,705
281,244;  324,785;  313,595;  316,445
281,332;  300,475;  290,845;  293,825
281,421;  279,895;  271,605;  273,675
281,509;  289,535;  284,646;  282,415
281,598;  268,975;  262,435;  263,765
281,686;  293,415;  290,776;  288,945
281,775;  290,285;  285,516;  290,815
281,863;  284,325;  278,016;  279,225
281,951;  282,205;  267,665;  270,735
282,040;  314,445;  300,315;  301,115
282,128;  300,355;  288,375;  294,235
282,217;  275,875;  265,926;  266,075
282,305;  304,035;  294,796;  294,045
282,393;  292,465;  286,505;  284,595
282,482;  290,745;  279,535;  283,255
282,570;  281,485;  266,945;  270,215
282,658;  290,785;  276,116;  277,715
282,747;  279,905;  265,026;  267,905
282,835;  323,165;  306,076;  309,035
282,923;  273,095;  264,655;  267,805
283,012;  298,645;  291,366;  296,345
283,100;  278,775;  269,185;  274,675
283,188;  268,675;  261,125;  262,525
283,277;  292,375;  284,336;  284,745
283,365;  278,045;  271,676;  278,375
283,453;  274,545;  264,755;  270,455
283,542;  298,255;  290,896;  293,765
283,630;  285,435;  276,195;  278,595
283,718;  278,945;  271,195;  274,365
283,806;  252,465;  241,706;  247,485
283,894;  280,045;  274,336;  274,395
283,983;  290,135;  282,165;  282,605
284,071;  293,345;  285,285;  291,495
284,159;  316,165;  309,125;  314,805
284,247;  295,005;  287,466;  288,555
284,335;  293,665;  286,935;  287,485
284,424;  291,905;  283,915;  288,465
284,512;  292,345;  283,475;  286,175
284,600;  286,355;  279,415;  280,145
284,688;  320,695;  312,815;  317,115
284,776;  290,915;  286,815;  287,745
284,864;  316,985;  302,125;  308,655
284,952;  295,475;  289,625;  289,025
285,041;  301,425;  298,255;  298,145
285,129;  306,255;  299,435;  302,445
285,217;  306,645;  300,056;  303,885
285,305;  323,745;  318,676;  319,885
285,393;  283,125;  275,776;  278,695
285,481;  298,935;  296,665;  298,405
285,569;  290,385;  282,966;  285,145
285,657;  300,155;  295,165;  296,255
285,745;  297,225;  292,655;  293,125
285,833;  296,765;  289,505;  293,165
285,921;  307,065;  298,116;  300,945
286,009;  310,975;  301,105;  303,655
286,097;  303,075;  298,236;  301,315
286,185;  290,985;  284,405;  284,795
286,273;  288,435;  283,415;  284,655
286,361;  315,455;  307,915;  311,825
286,449;  300,315;  296,195;  294,565
286,537;  304,205;  304,105;  302,085
286,625;  297,125;  291,185;  293,415
286,713;  288,005;  275,806;  280,315
286,801;  312,145;  312,076;  307,795
286,889;  323,495;  319,435;  320,055
286,976;  294,825;  287,905;  291,205
287,064;  309,525;  307,635;  311,875
287,152;  311,045;  303,576;  305,585
287,240;  313,275;  309,185;  308,845
287,328;  291,225;  287,685;  281,755
287,416;  295,985;  290,975;  292,385
287,504;  302,135;  294,435;  298,285
287,591;  305,285;  298,176;  300,225
287,679;  289,405;  286,095;  286,145
287,767;  304,355;  298,206;  296,985
287,855;  310,245;  303,736;  307,515
287,943;  312,245;  306,716;  309,435
288,030;  294,085;  293,456;  291,795
288,118;  324,815;  318,255;  318,995
288,206;  280,355;  274,956;  275,705
288,294;  308,515;  301,986;  304,135
288,382;  310,905;  300,776;  303,615
288,469;  311,245;  304,396;  308,895
288,557;  296,265;  294,095;  292,615
288,645;  329,145;  323,396;  323,315
288,732;  284,795;  278,915;  279,235
288,820;  311,345;  304,576;  306,785
288,908;  308,675;  304,826;  303,915
288,995;  318,675;  310,945;  310,305
289,083;  298,505;  293,026;  292,935
289,171;  335,125;  320,165;  325,565
289,258;  374,155;  322,176;  324,305
289,346;  436,955;  326,266;  329,365
289,434;  320,135;  303,435;  306,185
289,521;  289,175;  280,415;  286,295
289,609;  325,995;  320,426;  325,405
289,697;  317,635;  312,336;  315,125
289,784;  300,835;  295,445;  295,775
289,872;  312,315;  306,905;  313,015
289,959;  287,045;  282,375;  283,415
290,047;  301,885;  296,546;  300,865
290,134;  276,805;  272,665;  273,815
290,222;  314,625;  308,915;  308,665
290,310;  310,405;  304,905;  307,145
290,397;  336,245;  328,505;  332,835
290,485;  296,165;  290,815;  293,005
290,572;  316,595;  313,225;  314,645
290,660;  309,305;  306,385;  306,205
290,747;  300,275;  295,165;  292,775
290,835;  304,505;  299,016;  302,505
290,922;  304,955;  304,016;  305,515
291,009;  303,055;  297,676;  301,715
291,097;  300,065;  297,926;  300,755
291,184;  336,395;  332,716;  338,585
291,272;  292,245;  282,966;  288,375
291,359;  286,445;  283,915;  289,305
291,447;  309,035;  303,086;  304,735
291,534;  327,815;  327,326;  323,005
291,621;  304,775;  302,845;  301,105
291,709;  288,135;  285,716;  283,705
291,796;  320,955;  320,146;  316,555
291,884;  294,845;  291,466;  296,115
291,971;  322,705;  315,065;  320,295
292,058;  291,745;  288,725;  288,985
292,146;  302,395;  293,746;  297,955
292,233;  287,375;  285,426;  284,765
292,320;  300,155;  294,306;  297,685
292,408;  314,395;  309,086;  308,565
292,495;  302,765;  290,565;  293,085
292,582;  291,375;  286,845;  287,375
292,669;  285,745;  281,415;  286,055
292,757;  282,105;  282,176;  283,865
292,844;  316,605;  312,935;  313,175
292,931;  282,735;  275,176;  277,485
293,018;  297,455;  291,516;  289,915
293,106;  306,895;  299,966;  303,035
293,193;  276,845;  272,415;  274,385
293,280;  305,695;  297,255;  303,635
293,367;  298,575;  296,956;  295,215
293,455;  300,565;  293,185;  294,155
293,542;  279,405;  275,695;  281,445
293,629;  283,035;  279,035;  281,855
293,716;  314,755;  305,646;  311,195
293,803;  293,105;  287,105;  287,695
293,890;  315,085;  310,336;  312,555
293,978;  294,305;  284,105;  290,755
294,065;  290,045;  286,725;  284,345
294,152;  306,745;  302,385;  304,355
294,239;  279,545;  275,646;  274,625
294,326;  293,495;  286,746;  290,635
294,413;  282,185;  278,046;  278,465
294,500;  299,255;  292,586;  295,255
294,587;  288,385;  283,915;  287,195
294,674;  313,775;  305,875;  306,925
294,761;  292,485;  288,896;  287,945
294,848;  295,265;  286,866;  294,115
294,935;  296,165;  290,746;  290,555
295,022;  278,085;  272,396;  274,105
295,109;  267,345;  258,466;  262,665
295,196;  295,775;  291,405;  295,265
295,283;  282,895;  281,176;  278,745
295,370;  315,175;  308,975;  312,155
295,457;  293,925;  289,986;  290,435
295,544;  289,775;  285,105;  287,985
295,631;  295,205;  290,165;  295,805
295,718;  276,695;  272,676;  274,015
295,805;  303,525;  296,225;  296,685
295,892;  306,805;  300,005;  304,445
295,979;  297,895;  291,266;  292,755
296,066;  302,875;  293,996;  296,145
296,153;  302,195;  296,026;  296,355
296,240;  307,485;  299,206;  300,535
296,327;  304,135;  285,206;  285,615
296,413;  321,945;  301,285;  305,075
296,500;  337,265;  302,755;  305,145
296,587;  512,165;  288,616;  286,065
296,674; 1652,125;  294,396;  297,335
296,761;  808,355;  300,095;  298,245
296,848;  304,425;  281,956;  285,815
296,934;  302,715;  290,966;  295,265
297,021;  299,295;  292,565;  292,975
297,108;  283,445;  276,366;  280,895
297,195;  296,545;  291,466;  294,705
297,282;  291,145;  286,535;  286,195
297,368;  313,865;  310,026;  305,975
297,455;  286,615;  279,155;  283,145
297,542;  318,025;  311,375;  313,235
297,629;  302,485;  299,016;  300,205
297,715;  312,185;  308,285;  310,385
297,802;  306,095;  300,466;  303,285
297,889;  317,895;  311,716;  313,025
297,975;  330,165;  322,836;  323,685
298,062;  317,605;  310,505;  312,995
298,149;  278,785;  273,505;  274,905
298,235;  295,675;  291,135;  294,075
298,322;  300,425;  294,806;  292,785
298,409;  313,055;  311,195;  312,715
298,495;  290,485;  285,435;  283,435
298,582;  311,115;  307,516;  308,065
298,669;  295,445;  290,526;  294,245
298,755;  303,255;  299,065;  302,235
298,842;  306,765;  304,755;  309,095
298,928;  308,735;  303,855;  304,595
299,015;  298,815;  294,896;  296,705
299,102;  324,965;  318,986;  320,565
299,188;  320,825;  315,956;  316,045
299,275;  315,055;  309,926;  309,365
299,361;  281,205;  278,875;  281,665
299,448;  315,235;  312,466;  310,885
299,534;  317,075;  312,355;  312,735
299,621;  309,165;  304,655;  303,865
299,707;  306,205;  299,016;  304,675
299,794;  322,185;  319,885;  319,685
299,880;  323,115;  317,076;  318,325
299,967;  303,745;  296,345;  296,295
300,053;  302,185;  295,935;  299,065
300,140;  331,545;  323,086;  328,875
300,226;  317,275;  313,885;  313,595
300,312;  312,265;  307,276;  306,695
300,399;  311,545;  305,505;  308,465
300,485;  299,825;  297,776;  301,725
300,572;  283,065;  281,655;  281,655
300,658;  299,765;  297,216;  294,585
300,744;  314,345;  310,706;  311,315
300,831;  319,405;  313,595;  318,275
300,917;  323,035;  321,676;  320,915
301,004;  314,295;  311,556;  311,015
301,090;  281,105;  277,785;  280,095
301,176;  289,535;  284,255;  288,205
301,263;  318,815;  313,676;  314,925
301,349;  294,225;  289,475;  293,305
301,435;  288,655;  284,276;  285,095
301,521;  319,275;  314,625;  313,245
301,608;  318,005;  314,695;  315,515
301,694;  301,325;  297,896;  300,535
301,780;  307,765;  303,046;  298,285
301,867;  289,615;  280,836;  285,265
301,953;  309,935;  296,595;  301,165
302,039;  384,105;  295,116;  297,515
302,125;  547,565;  298,445;  304,125
302,211;  362,055;  332,926;  334,115
302,298;  353,115;  301,926;  305,295
302,384;  300,305;  281,116;  287,095
302,470;  299,975;  289,505;  291,305
302,556;  307,775;  301,935;  305,645
302,642;  300,755;  293,456;  295,155
302,729;  301,335;  289,306;  293,525
302,815;  320,765;  317,966;  319,775
302,901;  301,325;  296,475;  298,745
302,987;  314,275;  307,716;  308,245
303,073;  305,175;  304,185;  302,795
303,159;  299,235;  296,945;  298,695
303,245;  291,235;  284,336;  290,495
303,331;  288,775;  283,486;  286,455
303,417;  299,215;  294,556;  296,145
303,503;  312,375;  310,046;  312,155
303,590;  296,345;  289,146;  291,705
303,676;  300,665;  299,505;  300,385
303,762;  289,785;  287,185;  287,835
303,848;  313,465;  311,026;  312,055
303,934;  309,295;  304,915;  307,775
304,020;  308,405;  301,796;  304,745
304,106;  314,635;  309,975;  314,015
304,192;  299,525;  291,796;  296,765
304,278;  309,875;  302,896;  304,455
304,364;  332,175;  323,026;  324,755
304,450;  306,635;  301,496;  304,095
304,535;  307,225;  304,005;  304,245
304,621;  305,215;  301,565;  302,205
304,707;  308,165;  306,296;  307,635
304,793;  320,405;  318,625;  318,575
304,879;  310,615;  306,776;  310,585
304,965;  317,665;  312,845;  313,365
305,051;  312,745;  308,616;  311,355
305,137;  322,935;  318,146;  324,235
305,223;  296,475;  291,445;  293,725
305,309;  319,175;  313,496;  317,755
305,394;  316,115;  311,996;  311,465
305,480;  303,065;  299,426;  304,775
305,566;  311,045;  309,355;  310,525
305,652;  319,545;  313,605;  317,885
305,738;  352,615;  349,206;  353,435
305,824;  317,085;  316,016;  315,095
305,909;  326,735;  323,815;  325,155
305,995;  290,845;  289,595;  290,025
306,081;  350,145;  348,345;  350,435
306,167;  310,085;  303,966;  307,875
306,252;  327,755;  324,375;  325,505
306,338;  336,505;  331,366;  335,515
306,424;  309,185;  306,595;  307,415
306,510;  321,735;  316,105;  319,795
306,595;  323,365;  323,685;  322,125
306,681;  321,455;  316,926;  318,895
306,767;  311,375;  305,336;  309,425
306,852;  335,835;  328,255;  331,375
306,938;  327,455;  325,796;  325,905
307,024;  304,655;  302,875;  304,755
307,109;  339,845;  336,065;  338,965
307,195;  319,765;  316,326;  318,385
307,281;  321,775;  318,716;  318,575
307,366;  316,345;  313,345;  310,455
307,452;  319,945;  312,426;  316,335
307,537;  299,105;  296,776;  298,485
307,623;  294,825;  292,105;  296,985
307,709;  315,615;  309,885;  310,795
307,794;  295,565;  288,576;  291,835
307,880;  321,745;  320,236;  319,735
307,965;  311,315;  307,456;  307,525
308,051;  298,845;  297,195;  298,065
308,136;  298,305;  297,165;  296,745
308,222;  306,375;  300,366;  302,045
308,307;  300,455;  295,116;  296,645
308,393;  301,375;  295,535;  300,335
308,478;  320,215;  321,826;  318,975
308,564;  295,925;  295,516;  288,925
308,649;  312,415;  308,496;  308,295
308,735;  306,345;  294,155;  300,535
308,820;  323,375;  320,655;  319,455
308,906;  299,715;  291,625;  300,515
308,991;  341,785;  341,076;  338,375
309,076;  322,425;  319,336;  320,645
309,162;  287,395;  283,945;  283,805
309,247;  312,275;  309,945;  308,415
309,333;  298,615;  291,646;  297,855
309,418;  303,545;  298,665;  301,955
309,503;  300,735;  297,646;  300,235
309,589;  305,225;  303,725;  305,345
309,674;  294,095;  290,945;  289,235
309,759;  303,635;  303,315;  304,195
309,845;  313,115;  311,016;  312,415
309,930;  309,595;  305,966;  307,375
310,015;  279,235;  276,095;  276,835
310,101;  319,155;  315,616;  319,905
310,186;  291,045;  285,426;  288,565
310,271;  300,645;  297,296;  298,295
310,357;  298,495;  297,526;  296,455
310,442;  309,365;  302,445;  303,865
310,527;  303,575;  297,766;  301,125
310,612;  280,185;  278,195;  281,425
310,698;  323,785;  319,725;  321,135
310,783;  307,355;  301,176;  302,685
310,868;  298,215;  294,285;  295,125
310,953;  287,845;  284,165;  285,195
311,038;  314,315;  311,146;  310,075
311,124;  298,105;  294,635;  290,925
311,209;  278,665;  276,736;  277,355
311,294;  318,285;  310,206;  312,575
311,379;  280,615;  276,785;  277,345
311,464;  304,845;  297,405;  297,635
311,549;  291,445;  282,385;  284,505
311,634;  292,695;  290,396;  286,805
311,719;  323,085;  316,016;  315,415
311,805;  297,275;  289,266;  291,605
311,890;  304,115;  295,165;  295,925
311,975;  296,075;  281,526;  286,055
312,060;  314,345;  298,146;  302,435
312,145;  295,285;  277,586;  276,025
312,230;  318,375;  290,815;  296,495
312,315;  334,215;  294,065;  296,045
312,400;  406,865;  296,396;  299,795
312,485; 1577,385;  290,535;  292,475
312,570; 1263,635;  277,125;  279,615
312,655;  349,635;  308,176;  313,325
312,740;  332,545;  301,616;  302,005
312,825;  341,955;  304,105;  307,725
312,910;  360,695;  307,736;  309,235
312,995;  442,265;  296,236;  298,245
313,080; 1963,375;  285,655;  286,805
313,165; 2192,345;  303,565;  305,305
313,250;  368,785;  287,276;  287,825
313,335;  326,795;  307,435;  312,125
313,419;  285,395;  267,466;  268,635
313,504;  324,615;  313,355;  315,225
313,589;  308,055;  295,216;  297,545
313,674;  317,085;  307,206;  310,085
313,759;  292,035;  281,556;  282,625
313,844;  302,485;  292,776;  291,005
313,929;  299,005;  289,945;  291,695
314,014;  325,725;  313,306;  315,005
314,098;  306,795;  299,035;  300,425
314,183;  268,145;  263,505;  263,795
314,268;  301,055;  296,496;  298,955
314,353;  309,165;  302,026;  306,185
314,438;  315,355;  306,905;  311,515
314,522;  314,205;  309,486;  308,535
314,607;  312,415;  307,565;  307,855
314,692;  307,375;  301,885;  303,855
314,777;  296,695;  291,766;  292,395
314,861;  282,755;  277,285;  276,385
314,946;  320,095;  315,116;  317,565
315,031;  297,445;  291,875;  294,115
315,115;  310,355;  306,206;  308,065
315,200;  319,175;  312,146;  313,065
315,285;  294,505;  289,486;  289,595
315,369;  291,265;  287,945;  288,545
315,454;  316,555;  311,905;  311,025
315,539;  309,085;  310,246;  307,795
315,623;  309,495;  309,426;  313,225
315,708;  341,005;  335,605;  336,825
315,793;  302,015;  297,986;  298,155
315,877;  306,745;  302,975;  305,445
315,962;  292,585;  289,105;  291,925
316,046;  322,995;  317,065;  319,225
316,131;  337,365;  334,516;  337,215
316,216;  313,345;  310,315;  310,785
316,300;  303,745;  303,345;  302,165
316,385;  326,125;  325,315;  324,305
316,469;  332,065;  330,625;  331,955
316,554;  301,635;  296,005;  298,425
316,638;  303,625;  296,725;  301,565
316,723;  299,675;  292,546;  293,795
316,807;  300,655;  299,595;  299,275
316,892;  292,625;  288,975;  289,925
316,976;  319,335;  314,405;  316,505
317,061;  313,135;  306,035;  305,965
317,145;  329,895;  327,655;  325,965
317,230;  323,665;  321,505;  319,905
317,314;  277,895;  275,565;  275,085
317,398;  315,055;  310,706;  312,245
317,483;  289,725;  290,026;  291,085
317,567;  317,645;  315,326;  317,865
317,652;  288,145;  283,526;  286,625
317,736;  310,545;  308,776;  309,285
317,820;  335,355;  329,005;  334,665
317,905;  311,055;  306,706;  307,035
317,989;  300,615;  298,285;  300,875
318,073;  300,735;  298,076;  297,705
318,158;  288,565;  284,966;  285,565
318,242;  299,015;  296,845;  299,095
318,326;  288,855;  283,155;  284,015
318,411;  296,205;  295,125;  296,565
318,495;  288,315;  285,776;  287,165
318,579;  290,285;  288,746;  289,305
318,664;  284,635;  280,315;  284,255
318,748;  310,335;  305,996;  310,145
318,832;  294,135;  290,806;  289,475
318,916;  278,475;  274,785;  277,335
319,001;  301,165;  299,945;  301,485
319,085;  293,965;  292,885;  290,905
319,169;  296,855;  293,396;  294,485
319,253;  289,395;  287,216;  285,525
319,337;  306,835;  306,246;  304,885
319,422;  315,985;  316,125;  313,225
319,506;  286,205;  283,326;  285,905
319,590;  309,535;  303,915;  305,525
319,674;  298,265;  291,926;  295,405
319,758;  302,805;  295,165;  300,215
319,842;  312,305;  306,135;  309,155
319,926;  297,755;  294,815;  295,205
320,010;  270,845;  267,046;  269,575
320,095;  287,015;  280,926;  284,685
320,179;  283,915;  279,125;  281,175
320,263;  286,835;  277,385;  285,805
320,347;  280,075;  271,296;  279,075
320,431;  274,805;  273,435;  274,355
320,515;  298,865;  296,375;  299,935
320,599;  275,455;  269,866;  273,825
320,683;  306,425;  305,706;  305,495
320,767;  271,195;  266,236;  266,205
320,851;  290,465;  281,855;  287,785
320,935;  315,985;  312,565;  318,275
321,019;  292,335;  292,975;  290,075
321,103;  283,445;  278,135;  280,585
321,187;  276,405;  273,165;  273,265
321,271;  295,325;  294,616;  296,825
321,355;  283,425;  281,595;  283,805
321,439;  301,895;  301,216;  301,725
321,523;  282,615;  282,266;  284,705
321,606;  287,495;  287,426;  288,215
321,690;  290,705;  287,026;  288,215
321,774;  293,145;  288,336;  292,205
321,858;  293,995;  292,966;  291,945
321,942;  301,065;  294,276;  298,975
322,026;  286,795;  283,315;  282,695
322,110;  295,725;  293,146;  295,755
322,194;  301,235;  295,355;  301,055
322,277;  287,265;  286,135;  287,285
322,361;  281,785;  278,595;  281,215
322,445;  293,335;  289,315;  291,095
322,529;  299,775;  297,716;  299,645
322,613;  301,805;  297,206;  297,795
322,696;  273,945;  267,695;  272,865
322,780;  284,415;  283,026;  283,485
322,864;  278,715;  272,625;  279,835
322,948;  295,575;  292,326;  295,965
323,031;  281,115;  281,565;  282,215
323,115;  288,905;  284,586;  285,215
323,199;  299,715;  296,565;  299,105
323,282;  310,145;  307,496;  310,065
323,366;  290,365;  287,296;  293,625
323,450;  280,785;  273,496;  275,835
323,533;  317,845;  314,576;  317,415
323,617;  274,565;  268,695;  271,585
323,701;  289,615;  281,105;  283,575
323,784;  298,195;  292,576;  294,205
323,868;  299,485;  297,866;  299,875
323,952;  297,425;  290,966;  294,175
324,035;  310,465;  305,926;  310,825
324,119;  305,145;  295,466;  298,455
324,202;  294,295;  286,836;  292,745
324,286;  288,635;  284,986;  286,605
324,370;  296,745;  293,105;  296,765
324,453;  304,195;  299,616;  301,745
324,537;  299,405;  294,426;  298,035
324,620;  290,255;  286,635;  291,765
324,704;  275,845;  270,445;  276,525
324,787;  296,765;  294,875;  296,265
324,871;  314,155;  310,986;  315,255
324,954;  314,225;  312,246;  315,985
325,038;  309,995;  306,466;  306,985
325,121;  312,945;  308,695;  312,075
325,205;  296,935;  290,396;  293,295
325,288;  281,205;  279,556;  285,675
325,371;  301,875;  298,945;  302,395
325,455;  317,055;  314,026;  312,045
325,538;  289,065;  281,516;  287,185
325,622;  325,725;  320,806;  321,295
325,705;  297,755;  297,716;  298,675
325,788;  317,365;  313,625;  316,645
325,872;  302,685;  300,796;  300,745
325,955;  324,355;  319,845;  325,065
326,039;  309,925;  309,576;  312,795
326,122;  315,585;  310,746;  311,665
326,205;  314,875;  311,806;  310,235
326,289;  317,935;  313,986;  319,245
326,372;  300,305;  294,746;  299,195
326,455;  327,245;  323,095;  324,405
326,538;  322,285;  312,336;  316,545
326,622;  322,035;  318,396;  320,075
326,705;  287,755;  287,315;  287,875
326,788;  326,115;  321,266;  322,405
326,871;  319,505;  315,576;  317,965
326,955;  316,725;  313,836;  315,225
327,038;  310,845;  310,116;  310,855
327,121;  306,405;  301,516;  307,855
327,204;  316,485;  313,216;  314,045
327,288;  334,355;  328,956;  332,375
327,371;  294,575;  288,185;  296,955
327,454;  317,065;  313,065;  313,845
327,537;  302,415;  299,815;  302,435
327,620;  328,495;  322,935;  330,145
327,703;  314,115;  309,076;  310,615
327,786;  316,535;  311,076;  312,115
327,870;  330,375;  323,155;  328,715
327,953;  306,855;  301,155;  305,785
328,036;  298,695;  293,105;  299,035
328,119;  323,645;  317,576;  321,135
328,202;  308,975;  301,885;  305,875
328,285;  329,985;  326,776;  329,015
328,368;  322,745;  320,935;  322,625
328,451;  323,705;  320,635;  322,565
328,534;  308,905;  301,266;  307,075
328,617;  311,385;  305,676;  311,785
328,700;  330,225;  326,505;  326,695
328,783;  327,025;  320,785;  322,875
328,866;  318,665;  314,095;  319,935
328,949;  327,915;  319,966;  326,555
329,032;  304,335;  297,826;  300,605
329,115;  294,925;  290,905;  295,945
329,198;  287,765;  282,956;  283,785
329,281;  303,355;  299,336;  298,465
329,364;  320,795;  316,246;  319,245
329,447;  311,935;  307,176;  309,255
329,530;  331,145;  328,155;  328,175
329,613;  308,175;  300,565;  306,725
329,696;  335,475;  326,806;  330,715
329,778;  314,595;  311,306;  316,915
329,861;  298,435;  295,236;  299,565
329,944;  327,385;  321,685;  327,225
330,027;  314,735;  311,576;  315,115
330,110;  312,385;  307,595;  311,705
330,193;  300,315;  295,306;  299,955
330,275;  316,745;  312,296;  315,835
330,358;  298,615;  291,776;  296,185
330,441;  324,735;  323,586;  325,365
330,524;  311,495;  305,216;  311,095
330,607;  305,695;  304,345;  306,905
330,689;  316,895;  313,105;  314,535
330,772;  314,825;  311,105;  312,425
330,855;  328,065;  325,065;  327,855
330,938;  322,415;  312,315;  321,275
331,020;  320,445;  317,176;  320,535
331,103;  298,795;  293,035;  294,505
331,186;  310,285;  305,146;  307,085
331,268;  298,185;  293,565;  298,695
331,351;  320,505;  313,026;  316,455
331,434;  313,735;  308,385;  312,645
331,516;  322,635;  319,076;  321,185
331,599;  307,105;  297,095;  301,425
331,682;  313,335;  310,736;  310,985
331,764;  295,185;  293,326;  297,915
331,847;  320,135;  313,716;  315,705
331,929;  294,385;  290,026;  293,225
332,012;  313,505;  309,625;  310,055
332,095;  327,845;  323,306;  326,625
332,177;  324,705;  320,806;  324,285
332,260;  328,635;  327,526;  328,035
332,342;  313,465;  309,246;  314,445
332,425;  315,415;  312,516;  311,505
332,507;  311,075;  308,526;  311,575
332,590;  295,345;  287,595;  291,655
332,672;  299,685;  294,885;  298,455
332,755;  309,955;  306,855;  311,605
332,837;  312,835;  310,716;  312,255
332,920;  314,365;  309,076;  315,155
333,002;  328,805;  325,676;  328,895
333,085;  316,355;  313,375;  315,165
333,167;  303,785;  296,875;  298,575
333,249;  297,725;  294,526;  298,145
333,332;  293,245;  293,296;  297,715
333,414;  305,315;  300,035;  304,875
333,497;  307,935;  300,255;  302,305
333,579;  303,565;  300,996;  306,375
333,661;  324,525;  319,706;  320,745
333,744;  295,925;  293,695;  297,125
333,826;  308,395;  305,766;  306,065
333,908;  320,325;  313,896;  316,665
333,991;  307,235;  291,266;  291,545
334,073;  467,325;  312,706;  318,525
334,155;  359,555;  304,086;  305,525
334,238;  326,845;  318,576;  326,145
334,320;  303,015;  297,046;  300,585
334,402;  308,455;  302,996;  304,895
334,485;  306,005;  303,655;  304,015
334,567;  300,255;  299,776;  301,975
334,649;  284,365;  278,426;  282,925
334,731;  315,955;  313,456;  317,305
334,813;  320,805;  315,605;  320,355
334,896;  295,655;  290,185;  294,595
334,978;  313,435;  309,165;  302,585
335,060;  308,375;  304,255;  304,235
335,142;  304,165;  301,665;  302,275
335,224;  312,285;  309,766;  311,745
335,307;  301,025;  297,456;  298,965
335,389;  316,075;  310,385;  317,305
335,471;  306,345;  299,896;  306,115
335,553;  323,525;  319,866;  318,905
335,635;  316,065;  312,836;  315,315
335,717;  302,135;  298,195;  300,145
335,799;  325,025;  322,695;  323,585
335,881;  282,865;  278,385;  282,845
335,963;  295,105;  291,796;  293,005
336,045;  302,185;  295,516;  301,085
336,128;  278,345;  270,945;  275,225
336,210;  292,155;  288,996;  292,295
336,292;  300,855;  297,845;  300,615
336,374;  305,995;  300,956;  306,155
336,456;  292,145;  285,616;  288,495
336,538;  307,565;  303,165;  304,435
336,620;  310,825;  310,576;  312,205
336,702;  292,885;  294,766;  294,235
336,783;  310,235;  302,556;  304,225
336,865;  307,685;  304,176;  305,725
336,947;  312,085;  308,486;  311,205
337,029;  282,025;  281,826;  282,945
337,111;  320,705;  316,266;  316,735
337,193;  285,025;  280,986;  284,795
337,275;  311,555;  310,815;  314,535
337,357;  322,715;  318,815;  324,805
337,439;  308,945;  305,255;  310,655
337,521;  282,405;  277,225;  280,915
337,602;  303,215;  298,435;  301,085
337,684;  319,675;  315,635;  317,455
337,766;  312,065;  312,266;  312,305
337,848;  300,995;  295,086;  301,025
337,930;  304,995;  303,165;  306,525
338,012;  300,045;  298,586;  299,555
338,093;  314,265;  312,396;  315,895
338,175;  323,885;  318,195;  321,575
338,257;  308,805;  306,945;  309,225
338,339;  294,705;  294,086;  300,165
338,420;  314,425;  310,986;  310,895
338,502;  303,855;  298,836;  304,265
338,584;  289,425;  286,736;  289,235
338,666;  304,615;  303,426;  302,365
338,747;  335,215;  330,806;  334,875
338,829;  308,985;  309,176;  309,265
338,911;  296,055;  296,236;  298,915
338,992;  295,375;  295,746;  294,435
339,074;  307,025;  306,155;  307,855
339,156;  300,125;  298,176;  303,395
339,237;  329,195;  325,035;  327,765
339,319;  298,065;  294,935;  300,045
339,400;  311,615;  309,065;  311,225
339,482;  280,305;  278,165;  280,605
339,564;  315,915;  317,026;  316,575
339,645;  306,895;  304,595;  308,105
339,727;  294,375;  290,216;  294,375
339,808;  320,515;  317,685;  322,555
339,890;  304,165;  299,956;  302,415
339,971;  317,645;  307,016;  315,055
340,053;  337,935;  336,746;  335,255
340,134;  298,075;  296,535;  298,415
340,216;  316,655;  315,556;  319,645
340,297;  298,945;  298,396;  301,525
340,379;  318,195;  314,736;  316,975
340,460;  309,325;  306,685;  306,615
340,542;  298,955;  294,535;  297,775
340,623;  313,635;  307,926;  312,435
340,705;  297,915;  297,516;  295,795
340,786;  295,535;  289,685;  291,925
340,868;  305,035;  308,826;  304,055
340,949;  285,585;  285,605;  286,145
341,030;  325,775;  321,435;  328,715
341,112;  281,635;  280,565;  284,075
341,193;  273,045;  270,135;  273,595
341,274;  322,505;  322,176;  320,965
341,356;  322,425;  320,716;  321,795
341,437;  301,035;  301,635;  300,825
341,518;  313,405;  307,176;  314,795
341,600;  318,335;  320,866;  322,465
341,681;  328,605;  328,866;  332,375
341,762;  327,145;  325,206;  323,705
341,844;  289,715;  287,146;  292,185
341,925;  308,725;  308,225;  311,205
342,006;  320,785;  320,426;  323,055
342,087;  293,605;  288,095;  292,095
342,169;  309,135;  307,026;  309,845
342,250;  288,785;  286,935;  285,935
342,331;  298,025;  298,706;  299,075
342,412;  313,415;  307,655;  310,045
342,493;  292,565;  289,415;  293,325
342,575;  329,535;  327,095;  327,355
342,656;  318,755;  318,466;  318,265
342,737;  331,605;  329,836;  330,295
342,818;  306,995;  307,996;  309,015
342,899;  316,775;  314,505;  317,165
342,980;  309,675;  306,695;  310,155
343,061;  305,165;  303,065;  304,715
343,143;  321,545;  319,535;  319,565
343,224;  310,685;  306,706;  305,915
343,305;  304,415;  299,625;  303,115
343,386;  305,745;  297,996;  300,475
343,467;  306,365;  303,155;  305,535
343,548;  306,835;  304,176;  305,935
343,629;  319,015;  316,405;  317,625
343,710;  324,135;  322,766;  321,015
343,791;  325,995;  325,065;  327,935
343,872;  300,965;  298,975;  297,795
343,953;  319,245;  314,826;  316,625
344,034;  324,055;  319,475;  324,485
344,115;  307,675;  304,255;  303,425
344,196;  301,655;  298,935;  302,165
344,277;  298,255;  293,306;  294,615
344,358;  309,165;  304,755;  307,345
344,439;  295,675;  293,975;  294,205
344,520;  299,675;  298,546;  300,975
344,601;  314,915;  314,646;  315,525
344,681;  307,455;  302,426;  303,825
344,762;  288,525;  283,466;  287,625
344,843;  283,665;  275,996;  281,125
344,924;  304,925;  303,635;  306,085
345,005;  292,605;  287,176;  288,725
345,086;  314,425;  307,665;  309,725
345,167;  294,815;  293,986;  295,575
345,247;  328,135;  323,896;  328,905
345,328;  318,435;  315,315;  317,705
345,409;  311,325;  307,056;  309,355
345,490;  315,245;  308,415;  314,245
345,571;  311,735;  304,875;  312,045
345,651;  281,865;  279,456;  279,055
345,732;  312,205;  307,285;  312,275
345,813;  313,635;  311,836;  317,355
345,894;  287,305;  285,785;  287,595
345,974;  314,325;  309,556;  311,845
346,055;  298,115;  296,435;  295,735
346,136;  310,045;  304,405;  306,245
346,216;  325,895;  324,945;  328,565
346,297;  308,575;  306,565;  304,225
346,378;  296,705;  291,996;  294,005
346,458;  315,135;  307,375;  313,405
346,539;  307,825;  302,306;  305,975
346,620;  308,325;  305,815;  306,685
346,700;  287,025;  288,755;  289,765
346,781;  289,035;  284,556;  286,765
346,861;  306,375;  304,336;  307,325
346,942;  303,545;  304,336;  302,715
347,023;  321,765;  317,885;  316,005
347,103;  301,105;  297,396;  302,825
347,184;  299,605;  294,475;  296,785
347,264;  297,225;  294,565;  296,805
347,345;  292,695;  290,526;  295,525
347,425;  287,455;  285,125;  290,565
347,506;  285,095;  283,595;  283,195
347,586;  294,555;  289,725;  292,435
347,667;  310,115;  307,616;  304,445
347,747;  312,895;  311,116;  310,775
347,828;  298,635;  296,486;  296,465
347,908;  308,615;  303,306;  307,175
347,988;  304,445;  298,655;  306,125
348,069;  312,895;  311,056;  311,395
348,149;  307,655;  303,956;  309,065
348,230;  311,415;  309,956;  310,945
348,310;  285,585;  284,185;  285,715
348,390;  287,615;  288,526;  288,625
348,471;  303,265;  303,665;  305,125
348,551;  294,585;  290,695;  293,935
348,632;  296,045;  289,505;  294,065
348,712;  292,755;  292,706;  295,115
348,792;  329,945;  329,836;  329,985
348,873;  283,165;  281,905;  283,045
348,953;  292,175;  289,845;  290,395
349,033;  305,455;  297,466;  299,465
349,113;  288,125;  286,076;  286,905
349,194;  303,185;  301,595;  304,825
349,274;  306,085;  304,796;  307,395
349,354;  305,855;  303,046;  308,435
349,434;  300,535;  300,116;  301,925
349,515;  321,635;  316,486;  322,185
349,595;  305,495;  302,206;  302,035
349,675;  309,095;  305,635;  308,015
349,755;  300,645;  296,746;  297,615
349,835;  306,735;  301,195;  307,695
349,916;  298,935;  298,435;  303,915
349,996;  294,205;  291,105;  291,745
350,076;  316,585;  312,375;  317,645
350,156;  287,895;  284,836;  287,665
350,236;  314,025;  314,116;  311,925
350,316;  296,275;  292,975;  295,765
350,396;  310,165;  305,646;  310,065
350,476;  307,685;  301,826;  304,275
350,556;  296,655;  293,966;  299,935
350,637;  325,055;  321,005;  321,825
350,717;  292,615;  288,445;  291,825
350,797;  305,665;  302,616;  305,905
350,877;  295,415;  289,875;  294,705
350,957;  299,265;  297,635;  300,095
351,037;  301,525;  298,556;  303,455
351,117;  300,605;  296,276;  296,555
351,197;  306,905;  303,366;  306,305
351,277;  301,725;  300,556;  301,575
351,357;  313,615;  308,806;  314,445
351,437;  309,495;  306,105;  307,755
351,516;  320,445;  317,986;  318,355
351,596;  294,795;  292,896;  296,025
351,676;  293,235;  290,405;  294,265
351,756;  328,955;  323,426;  326,135
351,836;  315,305;  313,866;  317,935
351,916;  299,995;  297,905;  298,975
351,996;  304,695;  303,996;  305,265
352,076;  304,925;  303,486;  303,085
352,156;  322,625;  319,556;  320,405
352,235;  301,555;  301,255;  300,955
352,315;  313,255;  312,456;  314,415
352,395;  309,525;  308,206;  309,425
352,475;  323,125;  315,405;  320,955
352,555;  329,565;  330,236;  330,635
352,634;  326,475;  321,956;  326,705
352,714;  306,805;  302,595;  304,055
352,794;  360,515;  354,466;  358,075
352,874;  318,985;  314,685;  317,555
352,953;  337,475;  337,676;  339,095
353,033;  324,695;  319,306;  320,925
353,113;  338,625;  332,135;  336,575
353,193;  327,765;  328,046;  329,935
353,272;  332,335;  333,135;  334,365
353,352;  312,755;  307,035;  311,285
353,432;  346,755;  343,005;  347,495
353,511;  329,385;  326,185;  330,665
353,591;  365,385;  361,616;  362,555
353,671;  333,575;  331,926;  333,015
353,750;  332,555;  332,296;  331,275
353,830;  318,815;  313,646;  317,015
353,909;  342,805;  339,836;  343,655
353,989;  318,655;  317,385;  320,255
354,069;  320,245;  319,456;  319,155
354,148;  340,655;  335,035;  339,585
354,228;  317,225;  315,695;  316,905
354,307;  331,925;  329,405;  332,345
354,387;  323,805;  322,095;  322,965
354,466;  314,695;  311,635;  316,045
354,546;  337,625;  335,135;  337,645
354,625;  317,945;  319,815;  320,355
354,705;  326,605;  324,246;  326,865
354,784;  315,995;  316,445;  318,195
354,864;  318,515;  316,635;  317,385
354,943;  336,225;  333,695;  339,105
355,023;  310,595;  310,996;  312,285
355,102;  365,105;  362,866;  363,435
355,181;  318,625;  315,966;  318,045
355,261;  342,305;  338,056;  342,165
355,340;  308,405;  303,845;  307,115
355,420;  344,035;  340,105;  342,305
355,499;  327,125;  322,975;  325,635
355,578;  318,665;  315,276;  316,885
355,658;  335,325;  332,875;  333,745
355,737;  323,455;  317,576;  319,005
355,816;  326,005;  323,276;  324,605
355,896;  318,985;  316,026;  321,355
355,975;  313,265;  307,355;  310,055
356,054;  309,535;  311,935;  312,455
356,133;  292,065;  290,565;  293,305
356,213;  326,525;  324,845;  324,825
356,292;  308,075;  304,016;  309,325
356,371;  318,395;  314,146;  314,035
356,451;  326,645;  324,755;  327,685
356,530;  352,305;  349,496;  350,795
356,609;  318,265;  311,146;  315,535
356,688;  318,915;  316,475;  316,165
356,767;  308,535;  304,695;  309,855
356,846;  327,485;  327,035;  327,235
356,926;  344,455;  340,016;  343,965
357,005;  320,725;  318,345;  318,565
357,084;  307,795;  304,466;  308,385
357,163;  322,425;  317,706;  317,185
357,242;  322,635;  320,146;  319,515
357,321;  317,135;  314,496;  316,575
357,400;  318,925;  321,236;  318,865
357,479;  322,065;  317,725;  320,795
357,559;  325,675;  321,405;  325,705
357,638;  300,995;  300,616;  298,815
357,717;  315,305;  313,746;  311,555
357,796;  334,345;  329,266;  330,875
357,875;  314,795;  314,466;  313,455
357,954;  314,435;  310,155;  313,855
358,033;  322,755;  323,405;  320,935
358,112;  330,685;  329,966;  328,315
358,191;  318,515;  315,276;  318,965
358,270;  299,645;  295,505;  297,695
358,349;  323,845;  321,625;  323,725
358,428;  325,125;  322,445;  326,125
358,507;  327,345;  321,366;  325,105
358,585;  323,135;  320,355;  325,525
358,664;  334,815;  332,266;  334,505
358,743;  326,665;  323,776;  326,515
358,822;  334,965;  334,475;  338,195
358,901;  311,985;  309,176;  309,505
358,980;  313,485;  310,885;  313,735
359,059;  334,015;  328,616;  332,255
359,138;  329,495;  329,415;  328,565
359,216;  323,565;  322,225;  327,485
359,295;  310,615;  309,475;  309,515
359,374;  333,685;  330,026;  333,455
359,453;  321,495;  316,345;  320,885
359,532;  307,965;  304,526;  308,455
359,610;  322,355;  319,556;  323,285
359,689;  334,165;  331,116;  333,025
359,768;  316,105;  313,706;  315,305
359,847;  304,725;  302,065;  305,385
359,925;  309,155;  304,105;  307,215
360,004;  301,985;  299,565;  302,585
360,083;  320,535;  320,165;  321,795
360,161;  310,245;  305,676;  309,885
360,240;  292,315;  288,725;  291,455
360,319;  318,585;  318,276;  317,225
360,397;  325,045;  324,986;  331,265
360,476;  320,915;  318,296;  324,355
360,555;  347,045;  345,565;  346,835
360,633;  306,305;  304,456;  304,945
360,712;  313,615;  309,056;  311,825
360,790;  333,085;  330,065;  331,185
360,869;  315,925;  310,266;  313,085
360,948;  325,455;  322,466;  322,235
361,026;  301,755;  300,065;  301,245
361,105;  311,885;  306,116;  309,875
361,183;  326,605;  324,725;  326,345
361,262;  304,425;  302,375;  307,465
361,340;  307,285;  305,815;  306,875
361,419;  290,585;  289,896;  290,845
361,497;  346,515;  340,926;  346,955
361,576;  321,845;  317,736;  323,245
361,654;  347,545;  342,736;  343,615
361,733;  301,975;  297,366;  297,305
361,811;  333,625;  329,065;  331,875
361,890;  293,985;  292,595;  293,595
361,968;  319,605;  313,706;  316,715
362,046;  336,445;  335,296;  335,795
362,125;  343,595;  337,435;  340,865
362,203;  317,495;  314,635;  316,745
362,282;  335,735;  328,676;  334,675
362,360;  321,375;  318,315;  323,125
362,438;  318,235;  313,565;  317,495
362,517;  357,615;  357,725;  357,035
362,595;  345,615;  340,956;  345,025
362,673;  336,715;  334,576;  338,035
362,752;  329,625;  326,366;  329,445
362,830;  342,815;  343,155;  338,795
362,908;  325,325;  322,885;  326,315
362,986;  335,625;  333,595;  334,645
363,065;  333,175;  326,405;  330,985
363,143;  363,675;  359,875;  363,525
363,221;  321,125;  313,755;  319,675
363,299;  315,995;  315,845;  315,595
363,378;  330,555;  327,546;  328,495
363,456;  308,195;  304,326;  305,295
363,534;  330,715;  323,996;  327,895
363,612;  334,555;  327,546;  330,285
363,690;  341,685;  337,885;  341,915
363,769;  357,215;  349,336;  354,965
363,847;  336,265;  332,326;  333,935
363,925;  309,665;  303,095;  306,775
364,003;  359,005;  350,866;  351,845
364,081;  346,275;  336,345;  339,765
364,159;  339,715;  331,836;  334,695
364,237;  352,175;  341,276;  343,025
364,315;  331,355;  318,866;  320,765
364,393;  362,075;  350,935;  355,465
364,471;  345,905;  328,185;  329,975
364,549;  356,075;  333,026;  334,495
364,627;  356,845;  323,095;  327,065
364,705;  371,875;  311,135;  310,945
364,783;  442,835;  323,496;  332,235
364,861; 1014,265;  331,396;  334,915
364,939; 3540,955;  314,086;  319,855
365,017;  802,455;  306,046;  310,735
365,095;  373,955;  322,116;  324,495
365,173;  381,365;  345,556;  349,605
365,251;  383,575;  341,535;  344,665
365,329;  537,855;  346,466;  345,195
365,407; 1147,185;  318,345;  321,385
365,485;  466,335;  344,826;  348,395
365,563;  365,245;  344,306;  346,815
365,641;  341,235;  331,896;  331,005
365,719;  348,165;  337,095;  336,965
365,796;  345,305;  334,926;  336,075
365,874;  357,925;  347,426;  349,165
365,952;  324,805;  309,516;  312,925
366,030;  351,375;  334,866;  333,525
366,108;  365,235;  326,345;  328,575
366,185;  625,125;  338,396;  343,695
366,263;  875,135;  334,646;  340,035
366,341;  382,805;  334,125;  339,925
366,419;  344,245;  331,535;  331,355
366,496;  352,515;  342,655;  345,225
366,574;  333,335;  325,826;  329,315
366,652;  356,115;  345,296;  349,635
366,730;  370,275;  365,475;  368,065
366,807;  337,885;  330,845;  334,945
366,885;  330,225;  321,135;  327,175
366,963;  334,735;  329,016;  331,635
367,040;  354,115;  345,815;  352,465
367,118;  333,075;  321,875;  325,205
367,196;  349,735;  341,896;  344,715
367,273;  340,345;  335,845;  338,245
367,351;  334,345;  328,155;  331,125
367,428;  361,965;  355,016;  356,915
367,506;  334,735;  329,225;  333,905
367,584;  363,425;  360,216;  363,085
367,661;  349,995;  341,785;  346,585
367,739;  338,845;  328,466;  334,835
367,816;  327,285;  320,345;  324,175
367,894;  345,415;  339,146;  345,755
367,971;  335,995;  329,885;  333,335
368,049;  358,545;  349,586;  353,435
368,126;  323,395;  314,625;  317,265
368,204;  356,095;  351,836;  352,775
368,281;  358,225;  353,225;  355,775
368,359;  349,685;  348,806;  354,965
368,436;  349,415;  342,385;  348,785
368,514;  350,805;  349,646;  351,035
368,591;  347,245;  343,486;  348,405
368,668;  351,995;  347,486;  351,455
368,746;  361,305;  358,556;  362,125
368,823;  345,545;  342,405;  345,515
368,901;  344,855;  339,046;  341,025
368,978;  362,305;  354,975;  361,925
369,055;  346,345;  343,826;  347,145
369,133;  370,545;  367,046;  368,725
369,210;  340,845;  339,206;  342,185
369,287;  370,975;  367,986;  371,205
369,365;  370,185;  368,896;  369,715
369,442;  348,845;  346,826;  351,135
369,519;  311,235;  306,396;  310,475
369,596;  373,555;  369,005;  372,695
369,674;  336,525;  336,526;  336,705
369,751;  369,055;  368,005;  369,405
369,828;  355,995;  350,366;  351,255
369,905;  359,055;  354,796;  358,705
369,983;  334,315;  329,826;  336,485
370,060;  334,805;  335,185;  336,165
370,137;  378,495;  371,595;  373,975
370,214;  342,435;  340,246;  340,845
370,291;  351,735;  347,845;  351,965
370,368;  351,335;  345,426;  349,675
370,446;  338,395;  335,716;  337,375
370,523;  335,955;  331,586;  338,615
370,600;  356,195;  350,706;  356,355
370,677;  350,595;  345,826;  349,525
370,754;  343,895;  341,706;  344,655
370,831;  348,645;  344,885;  347,665
370,908;  372,295;  368,556;  369,945
370,985;  328,625;  326,206;  327,885
371,062;  352,335;  346,635;  347,955
371,139;  367,115;  362,125;  364,815
371,216;  362,115;  357,496;  359,475
371,293;  353,365;  350,576;  350,305
371,370;  332,615;  328,806;  332,395
371,447;  356,095;  354,736;  355,835
371,524;  372,795;  374,685;  378,505
371,601;  374,505;  371,556;  374,285
371,678;  375,275;  374,306;  375,345
371,755;  350,925;  348,526;  348,275
371,832;  375,335;  374,526;  377,175
371,909;  343,775;  342,065;  344,605
371,986;  382,305;  376,505;  379,065
372,063;  350,655;  346,195;  348,745
372,140;  357,975;  354,056;  357,495
372,216;  362,815;  360,225;  360,935
372,293;  346,995;  341,945;  344,805
372,370;  375,455;  370,236;  372,635
372,447;  360,435;  361,646;  361,385
372,524;  353,025;  349,725;  352,115
372,601;  355,215;  353,236;  356,005
372,677;  339,885;  339,586;  339,035
372,754;  346,845;  347,516;  350,955
372,831;  356,375;  354,716;  356,955
372,908;  370,145;  368,496;  364,795
372,984;  357,405;  349,246;  356,035
373,061;  343,775;  342,046;  342,845
373,138;  356,095;  349,986;  354,465
373,215;  346,585;  345,155;  346,585
373,291;  351,825;  347,556;  353,415
373,368;  354,435;  353,516;  357,375
373,445;  352,265;  348,285;  348,395
373,521;  355,125;  349,216;  353,935
373,598;  348,795;  341,766;  343,845
373,675;  333,535;  332,646;  334,115
373,751;  349,155;  345,375;  354,195
373,828;  343,995;  341,076;  346,375
373,904;  391,165;  387,225;  391,935
373,981;  334,295;  332,516;  333,585
374,057;  355,375;  353,306;  355,945
374,134;  334,855;  331,706;  334,435
374,211;  353,085;  348,826;  351,835
374,287;  338,375;  338,565;  339,035
374,364;  370,685;  362,426;  365,335
374,440;  323,335;  319,035;  321,205
374,517;  365,255;  361,625;  366,995
374,593;  327,375;  326,896;  326,865
374,670;  341,315;  340,095;  342,905
374,746;  348,535;  346,915;  349,135
374,823;  372,625;  369,255;  368,775
374,899;  368,475;  366,836;  366,475
374,975;  341,405;  336,035;  341,495
375,052;  325,275;  319,776;  326,175
375,128;  329,655;  325,956;  331,675
375,205;  358,055;  353,665;  355,605
375,281;  336,535;  337,296;  336,395
375,357;  364,425;  361,026;  364,245
375,434;  339,225;  331,986;  338,045
375,510;  353,835;  347,755;  353,175
375,586;  349,885;  347,486;  349,845
375,663;  325,775;  321,926;  323,515
375,739;  359,695;  355,716;  358,675
375,815;  347,985;  346,366;  346,765
375,892;  350,125;  344,516;  348,555
375,968;  335,095;  331,605;  336,855
376,044;  339,805;  335,866;  339,405
376,120;  340,325;  332,535;  339,615
376,197;  351,895;  348,466;  352,185
376,273;  341,625;  340,516;  341,095
376,349;  381,955;  378,366;  379,125
376,425;  366,835;  362,935;  364,425
376,501;  347,785;  344,225;  347,555
376,578;  362,995;  362,885;  363,255
376,654;  384,465;  383,866;  382,945
376,730;  364,785;  360,266;  364,005
376,806;  376,295;  375,185;  376,845
376,882;  379,145;  377,176;  378,355
376,958;  375,015;  376,706;  373,325
377,034;  321,205;  319,695;  317,895
377,111;  371,125;  368,826;  369,285
377,187;  394,535;  390,845;  391,825
377,263;  386,715;  383,885;  384,725
377,339;  345,825;  341,445;  346,375
377,415;  366,635;  366,366;  365,685
377,491;  347,035;  342,885;  347,505
377,567;  363,865;  359,755;  360,685
377,643;  381,115;  380,076;  378,785
377,719;  368,035;  363,706;  367,845
377,795;  352,855;  345,725;  349,165
377,871;  367,435;  367,866;  370,355
377,947;  356,935;  348,236;  351,215
378,023;  351,725;  345,855;  349,075
378,099;  352,835;  349,035;  350,465
378,174;  378,575;  374,176;  374,825
378,250;  368,515;  363,105;  366,955
378,326;  373,345;  366,255;  370,045
378,402;  359,895;  357,685;  360,315
378,478;  364,135;  361,605;  365,295
378,554;  374,555;  370,396;  375,075
378,630;  366,725;  365,225;  365,285
378,706;  363,425;  358,076;  357,335
378,781;  398,335;  390,875;  394,875
378,857;  365,155;  363,185;  366,505
378,933;  366,965;  360,315;  365,855
379,009;  355,235;  351,426;  351,035
379,085;  392,655;  393,826;  391,725
379,160;  379,755;  377,246;  378,485
379,236;  379,775;  374,195;  376,655
379,312;  367,575;  359,915;  361,725
379,387;  356,615;  354,486;  355,105
379,463;  363,685;  359,836;  363,685
379,539;  371,555;  370,475;  373,395
379,615;  362,575;  359,056;  358,495
379,690;  397,365;  395,035;  398,755
379,766;  380,275;  373,276;  379,335
379,842;  392,015;  391,105;  391,375
379,917;  385,625;  380,935;  388,225
379,993;  370,205;  368,366;  373,385
380,068;  359,455;  359,236;  361,755
380,144;  384,455;  381,086;  383,405
380,220;  388,005;  382,086;  386,535
380,295;  357,065;  353,005;  355,035
380,371;  360,105;  359,935;  361,545
380,446;  379,855;  377,165;  381,125
380,522;  350,125;  348,766;  349,425
380,597;  362,215;  360,486;  359,965
380,673;  400,235;  390,456;  394,425
380,748;  360,715;  358,046;  358,445
380,824;  369,505;  367,676;  369,935
380,899;  390,915;  386,216;  388,425
380,975;  367,375;  365,475;  366,905
381,050;  354,195;  352,806;  352,825
381,126;  372,905;  370,526;  373,695
381,201;  402,155;  398,806;  402,495
381,277;  377,175;  373,435;  374,795
381,352;  388,895;  388,105;  390,855
381,427;  377,415;  372,586;  376,025
381,503;  383,875;  378,896;  379,385
381,578;  363,115;  360,605;  365,515
381,653;  373,605;  368,776;  372,375
381,729;  364,975;  361,535;  360,945
381,804;  369,805;  367,475;  368,805
381,879;  383,555;  383,306;  386,055
381,955;  357,985;  354,396;  356,545
382,030;  362,265;  356,556;  357,225
382,105;  376,265;  375,586;  372,555
382,181;  374,435;  367,466;  371,255
382,256;  378,385;  378,116;  374,765
382,331;  375,575;  367,216;  371,745
382,406;  355,885;  353,266;  357,745
382,482;  362,485;  361,315;  357,655
382,557;  363,755;  363,526;  366,745
382,632;  375,475;  370,595;  371,585
382,707;  363,705;  361,135;  365,615
382,782;  369,225;  361,516;  366,275
382,857;  361,155;  358,996;  361,035
382,933;  358,595;  351,776;  352,995
383,008;  348,445;  344,065;  345,165
383,083;  380,535;  376,866;  379,215
383,158;  382,955;  378,866;  381,615
383,233;  366,615;  362,385;  363,105
383,308;  360,545;  359,875;  362,675
383,383;  394,055;  389,445;  391,785
383,458;  365,425;  361,135;  360,475
383,533;  346,505;  342,456;  344,625
383,608;  394,305;  387,885;  390,385
383,683;  388,655;  385,046;  389,585
383,758;  382,305;  380,285;  380,925
383,833;  371,225;  370,296;  371,015
383,908;  344,915;  343,206;  342,165
383,983;  348,445;  346,296;  350,755
384,058;  363,685;  355,246;  357,655
384,133;  366,995;  368,185;  368,575
384,208;  379,975;  376,796;  379,565
384,283;  352,025;  348,736;  351,825
384,358;  388,475;  381,845;  387,485
384,433;  359,325;  357,496;  357,355
384,508;  373,615;  368,966;  373,895
384,583;  375,925;  373,725;  375,265
384,658;  371,735;  367,915;  371,275
384,732;  341,175;  339,456;  339,705
384,807;  366,535;  366,935;  369,005
384,882;  375,605;  371,246;  373,145
384,957;  370,085;  368,095;  371,985
385,032;  381,295;  375,426;  376,555
385,106;  372,445;  370,216;  371,515
385,181;  359,115;  351,385;  357,155
385,256;  366,565;  363,565;  366,745
385,331;  376,565;  371,935;  373,255
385,405;  382,315;  380,975;  381,445
385,480;  369,355;  365,695;  366,715
385,555;  403,255;  399,306;  400,405
385,630;  394,855;  390,956;  395,935
385,704;  379,275;  374,056;  377,105
385,779;  368,295;  364,405;  364,855
385,854;  370,985;  368,746;  369,975
385,928;  362,695;  363,016;  365,315
386,003;  405,515;  402,586;  405,115
386,078;  374,525;  372,466;  374,995
386,152;  404,485;  401,456;  401,815
386,227;  358,905;  357,646;  361,225
386,301;  381,025;  378,725;  380,385
386,376;  355,735;  348,695;  355,015
386,450;  380,025;  378,616;  381,145
386,525;  377,105;  373,556;  377,655
386,600;  386,865;  385,746;  385,925
386,674;  368,155;  364,076;  367,315
386,749;  382,415;  375,095;  381,315
386,823;  380,405;  377,435;  382,095
386,898;  384,265;  379,766;  380,535
386,972;  387,255;  380,966;  385,985
387,047;  377,495;  369,776;  374,355
387,121;  383,685;  379,695;  380,335
387,195;  362,205;  357,875;  359,895
387,270;  387,155;  385,625;  385,415
387,344;  405,595;  404,405;  407,055
387,419;  391,655;  385,665;  393,195
387,493;  381,225;  377,776;  379,825
387,567;  357,895;  355,005;  358,475
387,642;  407,675;  403,586;  405,945
387,716;  379,575;  369,565;  372,245
387,790;  373,105;  367,706;  371,225
387,865;  372,405;  372,806;  373,715
387,939;  408,875;  403,005;  404,415
388,013;  388,945;  384,806;  386,145
388,088;  372,895;  368,655;  370,085
388,162;  373,795;  370,135;  371,835
388,236;  379,605;  372,456;  375,275
388,310;  366,145;  361,966;  364,475
388,385;  400,765;  397,185;  400,845
388,459;  381,875;  379,996;  380,235
388,533;  366,005;  363,676;  362,565
388,607;  366,875;  366,776;  365,955
388,682;  378,865;  374,806;  375,745
388,756;  357,355;  355,035;  360,825
388,830;  393,645;  390,255;  394,075
388,904;  382,475;  378,276;  385,365
388,978;  372,885;  369,535;  370,165
389,052;  376,785;  375,396;  377,225
389,126;  372,865;  370,435;  376,195
389,200;  374,475;  372,665;  377,205
389,275;  371,855;  369,266;  367,695
389,349;  374,425;  374,695;  373,065
389,423;  370,785;  369,565;  369,375
389,497;  382,185;  380,966;  383,775
389,571;  371,295;  368,665;  370,175
389,645;  381,755;  376,806;  379,805
389,719;  373,985;  369,396;  372,955
389,793;  348,355;  346,576;  348,725
389,867;  402,595;  398,035;  402,955
389,941;  378,985;  375,375;  377,215
390,015;  367,865;  361,135;  364,515
390,089;  363,725;  360,426;  362,085
390,163;  374,815;  372,456;  375,935
390,237;  381,185;  375,435;  379,295
390,310;  383,105;  379,276;  382,155
390,384;  382,205;  376,546;  383,625
390,458;  407,205;  400,826;  403,825
390,532;  388,025;  383,496;  386,725
390,606;  369,505;  365,945;  369,265
390,680;  372,055;  366,466;  368,115
390,754;  370,605;  366,385;  368,915
390,827;  390,465;  388,276;  392,645
390,901;  395,785;  391,855;  396,215
390,975;  371,995;  368,905;  370,295
391,049;  366,625;  366,366;  364,315
391,123;  365,245;  362,685;  363,545
391,196;  368,645;  367,635;  367,855
391,270;  375,765;  378,426;  377,835
391,344;  362,355;  360,056;  359,585
391,418;  374,295;  372,975;  372,155
391,491;  360,775;  362,655;  363,995
391,565;  365,175;  362,065;  366,105
391,639;  399,685;  394,345;  397,875
391,712;  388,045;  385,815;  384,375
391,786;  386,625;  382,646;  386,785
391,860;  373,755;  369,385;  370,925
391,933;  374,035;  369,935;  371,115
392,007;  378,905;  371,355;  380,875
392,081;  396,775;  396,456;  399,955
392,154;  383,875;  377,845;  383,895
392,228;  394,715;  391,366;  394,685
392,301;  382,525;  376,266;  381,275
392,375;  392,575;  386,076;  389,995
392,448;  382,995;  379,516;  384,445
392,522;  375,425;  376,236;  379,965
392,595;  376,005;  370,105;  374,245
392,669;  377,115;  376,116;  379,675
392,742;  397,175;  390,975;  396,915
392,816;  396,745;  397,296;  400,205
392,889;  396,235;  392,746;  396,605
392,963;  410,865;  409,095;  409,745
393,036;  385,605;  385,345;  386,785
393,110;  396,225;  391,155;  393,885
393,183;  405,695;  400,836;  405,685
393,257;  420,765;  415,456;  417,745
393,330;  373,165;  365,845;  369,745
393,403;  394,125;  390,486;  395,585
393,477;  358,025;  355,845;  358,875
393,550;  394,845;  390,306;  395,545
393,623;  390,175;  388,396;  388,295
393,697;  408,155;  406,056;  406,835
393,770;  384,675;  376,556;  379,065
393,843;  406,505;  402,996;  406,915
393,917;  403,805;  394,216;  398,485
393,990;  412,135;  409,996;  410,125
394,063;  393,795;  386,855;  392,225
394,136;  392,575;  388,635;  391,675
394,210;  395,105;  393,336;  395,655
394,283;  406,035;  402,785;  407,175
394,356;  402,325;  399,165;  399,175
394,429;  398,995;  396,935;  398,825
394,502;  386,875;  382,016;  383,895
394,576;  417,065;  414,125;  414,715
394,649;  379,135;  378,776;  377,865
394,722;  404,425;  400,896;  403,785
394,795;  407,725;  408,306;  413,185
394,868;  388,335;  384,135;  385,985
394,941;  376,515;  376,435;  375,265
395,014;  419,845;  417,056;  420,205
395,088;  400,015;  398,956;  399,175
395,161;  401,875;  395,466;  398,685
395,234;  410,685;  409,236;  410,735
395,307;  406,405;  402,236;  405,525
395,380;  387,685;  384,736;  385,325
395,453;  436,785;  436,845;  437,285
395,526;  413,985;  408,385;  412,495
395,599;  432,035;  426,926;  430,645
395,672;  398,085;  394,586;  394,895
395,745;  420,225;  417,125;  421,075
395,818;  381,305;  376,306;  378,615
395,891;  390,055;  385,635;  387,695
395,964;  415,565;  415,896;  414,885
396,036;  389,265;  387,486;  384,175
396,109;  398,015;  392,076;  395,785
396,182;  399,795;  396,766;  399,545
396,255;  401,935;  399,225;  398,845
396,328;  410,565;  410,065;  411,075
396,401;  373,155;  370,746;  371,295
396,474;  383,575;  381,086;  381,505
396,547;  399,285;  397,046;  400,645
396,619;  395,895;  390,755;  390,525
396,692;  412,035;  404,866;  411,355
396,765;  372,895;  370,616;  372,985
396,838;  390,315;  388,225;  388,295
396,911;  375,125;  371,266;  373,155
396,983;  394,465;  392,496;  392,385
397,056;  374,535;  372,355;  374,095
397,129;  390,035;  387,796;  389,615
397,201;  391,885;  391,556;  389,605
397,274;  391,675;  385,366;  389,335
397,347;  361,955;  363,345;  363,665
397,420;  387,745;  384,605;  387,195
397,492;  389,245;  388,296;  388,685
397,565;  381,295;  375,915;  379,595
397,637;  376,895;  369,366;  372,085
397,710;  355,175;  351,586;  350,295
397,783;  413,825;  412,855;  414,805
397,855;  348,085;  345,345;  347,055
397,928;  371,585;  368,336;  371,095
398,000;  398,975;  395,866;  396,635
398,073;  389,135;  386,546;  384,745
398,146;  379,575;  376,706;  377,295
398,218;  399,535;  390,255;  393,135
398,291;  386,395;  385,806;  387,915
398,363;  385,565;  381,755;  384,505
398,436;  372,615;  369,855;  374,675
398,508;  386,465;  383,266;  385,345
398,581;  379,945;  378,206;  380,565
398,653;  376,995;  374,255;  373,825
398,726;  377,465;  378,535;  383,385
398,798;  389,675;  383,306;  387,885
398,870;  399,975;  391,116;  396,905
398,943;  370,175;  366,236;  369,775
399,015;  367,895;  365,676;  368,815
399,088;  391,765;  389,655;  388,435
399,160;  370,095;  368,076;  368,815
399,232;  355,765;  350,405;  352,095
399,305;  374,045;  368,435;  372,935
399,377;  380,465;  377,905;  377,535
399,449;  390,545;  386,246;  388,735
399,522;  428,105;  421,875;  424,965
399,594;  368,645;  364,576;  365,315
399,666;  384,405;  382,625;  385,235
399,738;  376,885;  373,336;  375,225
399,811;  376,935;  376,736;  377,025
399,883;  391,075;  386,105;  388,295
399,955;  393,045;  389,855;  389,195
400,027;  348,755;  345,945;  349,545
400,100;  410,585;  407,366;  409,275
400,172;  347,935;  348,296;  349,645
400,244;  377,995;  378,225;  381,195
400,316;  396,355;  393,016;  393,505
400,388;  390,665;  389,385;  393,005
400,460;  364,015;  359,306;  364,605
400,532;  353,425;  350,826;  351,835
400,605;  380,815;  377,736;  384,975
400,677;  406,045;  402,285;  404,675
400,749;  396,355;  395,685;  398,125
400,821;  392,525;  385,956;  388,105
400,893;  381,035;  379,445;  382,305
400,965;  392,645;  386,755;  392,785
401,037;  388,975;  387,565;  392,525
401,109;  373,035;  370,725;  373,835
401,181;  383,915;  380,716;  385,485

