pru
Integration time [ms]:   0,150
Averaging Nr. [scans]: 30
Smoothing Nr. [pixels]: 0
Data measured with spectrometer [name]: 7416147SP
Wave   ;Sample   ;Dark     ;Reference
[nm]   ;[counts] ;[counts] ;[counts] 

230,218;  298,123;  290,315;  293,845
230,311;  323,890;  319,885;  318,565
230,404;  307,590;  309,855;  312,875
230,497;  321,757;  317,385;  315,715
230,591;  338,423;  333,426;  335,355
230,684;  328,690;  326,486;  329,355
230,777;  314,490;  311,736;  314,765
230,870;  317,757;  313,326;  316,955
230,964;  309,723;  310,885;  314,745
231,057;  341,557;  342,496;  343,475
231,150;  334,657;  331,695;  332,715
231,243;  332,357;  330,635;  332,775
231,336;  333,557;  331,375;  331,335
231,430;  316,290;  316,496;  317,715
231,523;  328,490;  324,516;  326,785
231,616;  308,190;  305,445;  309,685
231,709;  356,490;  328,065;  330,025
231,802;  317,557;  300,945;  301,885
231,895;  317,990;  299,836;  300,315
231,988;  332,290;  315,655;  318,535
232,082;  317,790;  298,155;  302,425
232,175;  323,890;  302,155;  306,175
232,268;  321,223;  301,266;  305,345
232,361;  317,957;  304,806;  307,515
232,454;  336,490;  322,396;  323,025
232,547;  337,223;  318,716;  322,655
232,640;  308,190;  296,766;  294,035
232,733;  336,423;  314,116;  323,045
232,826;  310,123;  288,915;  295,035
232,919;  326,390;  313,826;  312,665
233,012;  308,423;  293,646;  292,775
233,105;  317,723;  294,766;  298,815
233,199;  319,157;  299,875;  304,045
233,292;  309,823;  293,475;  296,235
233,385;  280,523;  263,426;  262,225
233,478;  308,557;  293,885;  295,685
233,571;  342,257;  324,586;  327,675
233,664;  319,557;  305,996;  308,435
233,757;  294,457;  280,796;  281,395
233,850;  297,257;  282,255;  285,825
233,943;  302,590;  290,896;  292,195
234,035;  320,390;  300,576;  302,355
234,128;  295,357;  281,836;  283,945
234,221;  308,757;  297,665;  298,245
234,314;  325,123;  304,915;  311,975
234,407;  324,090;  302,935;  309,075
234,500;  293,123;  277,625;  281,875
234,593;  301,057;  287,095;  285,735
234,686;  311,023;  293,746;  293,765
234,779;  303,257;  291,266;  293,165
234,872;  297,623;  281,806;  281,565
234,965;  300,390;  292,806;  290,795
235,058;  294,123;  274,155;  276,215
235,150;  304,523;  285,776;  290,805
235,243;  300,423;  282,736;  284,425
235,336;  322,123;  300,695;  304,545
235,429;  285,190;  273,646;  272,515
235,522;  351,523;  330,996;  335,445
235,615;  279,957;  262,276;  265,145
235,707;  297,023;  282,415;  282,335
235,800;  299,690;  289,815;  290,515
235,893;  301,857;  289,956;  292,955
235,986;  313,623;  298,266;  299,325
236,079;  297,923;  286,586;  291,125
236,171;  293,557;  270,725;  271,865
236,264;  328,690;  312,635;  313,275
236,357;  309,390;  290,986;  293,865
236,450;  328,190;  315,225;  317,215
236,542;  282,090;  267,065;  272,575
236,635;  329,390;  313,546;  316,385
236,728;  305,257;  285,516;  288,115
236,821;  297,723;  280,165;  283,715
236,913;  291,823;  277,896;  276,315
237,006;  283,823;  271,605;  275,435
237,099;  298,390;  283,896;  285,575
237,191;  319,357;  298,796;  300,225
237,284;  282,623;  267,896;  272,995
237,377;  317,790;  294,725;  297,495
237,470;  297,057;  285,415;  287,875
237,562;  289,890;  276,866;  275,785
237,655;  339,957;  320,945;  324,565
237,747;  312,623;  292,695;  295,845
237,840;  328,423;  313,086;  314,435
237,933;  318,890;  300,445;  301,555
238,025;  321,790;  301,415;  301,595
238,118;  298,690;  282,456;  287,755
238,211;  284,623;  268,155;  272,375
238,303;  284,790;  272,296;  273,415
238,396;  287,857;  268,065;  271,945
238,488;  305,957;  292,625;  291,075
238,581;  303,257;  287,855;  289,445
238,673;  302,257;  285,766;  286,865
238,766;  295,057;  282,635;  283,185
238,859;  286,090;  273,586;  276,105
238,951;  293,290;  281,095;  282,835
239,044;  292,157;  276,496;  279,525
239,136;  282,057;  269,035;  271,705
239,229;  300,390;  280,665;  283,435
239,321;  289,390;  271,255;  276,105
239,414;  305,190;  289,875;  292,345
239,506;  299,757;  284,625;  290,655
239,599;  333,123;  316,315;  315,935
239,691;  301,290;  287,945;  287,755
239,784;  318,357;  301,926;  304,175
239,876;  316,057;  295,005;  294,715
239,969;  300,257;  284,426;  288,635
240,061;  286,557;  269,505;  272,655
240,153;  297,190;  276,776;  278,405
240,246;  305,657;  287,635;  287,925
240,338;  324,857;  315,285;  314,405
240,431;  288,357;  268,896;  270,455
240,523;  279,123;  269,315;  270,665
240,615;  311,523;  299,086;  301,495
240,708;  328,390;  309,945;  312,145
240,800;  297,690;  286,956;  289,175
240,893;  290,290;  272,216;  274,965
240,985;  301,823;  286,116;  289,995
241,077;  282,157;  269,866;  271,905
241,170;  317,957;  300,355;  300,805
241,262;  310,557;  293,695;  290,825
241,354;  276,623;  252,305;  253,985
241,447;  297,790;  281,326;  283,905
241,539;  293,223;  266,746;  270,745
241,631;  335,390;  314,366;  317,275
241,724;  281,823;  259,135;  260,655
241,816;  292,723;  279,385;  281,545
241,908;  294,990;  275,056;  280,445
242,000;  300,290;  277,625;  279,505
242,093;  293,990;  277,725;  280,745
242,185;  296,857;  277,736;  277,535
242,277;  288,257;  274,695;  277,115
242,369;  300,223;  282,146;  286,335
242,462;  295,090;  274,405;  274,215
242,554;  294,857;  277,146;  281,105
242,646;  295,590;  283,146;  286,575
242,738;  325,623;  303,255;  307,195
242,830;  274,157;  259,026;  260,415
242,923;  318,090;  297,035;  299,015
243,015;  287,757;  268,655;  266,675
243,107;  280,723;  267,676;  271,255
243,199;  288,857;  276,345;  278,365
243,291;  286,590;  272,125;  276,215
243,383;  268,923;  254,826;  256,465
243,476;  282,690;  269,435;  268,005
243,568;  297,590;  280,915;  284,885
243,660;  295,823;  273,385;  279,575
243,752;  296,823;  279,796;  287,275
243,844;  318,423;  300,766;  302,705
243,936;  305,590;  291,956;  293,555
244,028;  319,523;  304,796;  307,475
244,120;  266,323;  254,346;  255,525
244,212;  305,857;  293,826;  293,755
244,305;  281,490;  268,496;  267,935
244,397;  303,623;  289,165;  291,675
244,489;  323,957;  304,276;  307,925
244,581;  319,990;  299,255;  300,795
244,673;  294,157;  281,806;  283,225
244,765;  305,923;  286,035;  290,565
244,857;  303,023;  284,986;  287,335
244,949;  300,290;  283,956;  284,945
245,041;  266,923;  250,865;  255,005
245,133;  311,223;  293,695;  296,625
245,225;  293,957;  277,915;  280,695
245,317;  302,623;  289,456;  289,025
245,409;  275,123;  263,755;  269,375
245,501;  307,090;  288,496;  293,045
245,593;  303,590;  286,255;  290,055
245,685;  297,823;  285,405;  288,735
245,776;  298,590;  285,945;  287,235
245,868;  284,290;  271,276;  272,565
245,960;  278,557;  265,875;  263,405
246,052;  323,357;  310,766;  310,445
246,144;  304,557;  294,165;  294,205
246,236;  294,457;  283,576;  283,565
246,328;  308,023;  291,345;  293,965
246,420;  297,223;  279,746;  280,855
246,512;  320,690;  308,236;  310,455
246,604;  291,690;  282,526;  286,825
246,695;  285,123;  273,345;  272,135
246,787;  310,690;  293,526;  301,145
246,879;  314,623;  292,716;  297,145
246,971;  311,457;  299,276;  300,965
247,063;  294,923;  273,255;  278,605
247,155;  312,190;  294,516;  297,195
247,246;  300,523;  283,266;  283,715
247,338;  300,423;  288,116;  294,265
247,430;  318,823;  299,945;  303,475
247,522;  314,723;  297,546;  300,555
247,613;  319,757;  296,586;  299,675
247,705;  305,290;  286,896;  288,445
247,797;  332,090;  305,776;  307,475
247,889;  320,957;  294,706;  295,475
247,980;  324,790;  285,676;  291,995
248,072;  328,423;  282,845;  285,895
248,164;  354,057;  293,216;  298,385
248,256;  301,157;  271,366;  274,105
248,347;  327,923;  309,785;  311,065
248,439;  297,790;  283,165;  282,675
248,531;  321,223;  303,885;  304,835
248,622;  326,257;  307,206;  308,325
248,714;  298,090;  276,945;  278,365
248,806;  309,657;  293,655;  298,015
248,897;  314,457;  291,535;  292,985
248,989;  274,857;  263,956;  263,855
249,081;  296,957;  283,355;  284,905
249,172;  309,223;  289,926;  295,135
249,264;  290,657;  272,076;  273,435
249,356;  287,757;  269,326;  273,745
249,447;  303,757;  282,176;  284,525
249,539;  304,457;  283,086;  284,645
249,630;  311,857;  289,875;  288,495
249,722;  333,790;  313,276;  315,395
249,813;  305,757;  280,496;  284,125
249,905;  309,190;  289,426;  293,665
249,997;  294,357;  281,445;  280,615
250,088;  311,457;  282,255;  288,985
250,180;  301,023;  283,695;  284,575
250,271;  299,357;  281,195;  280,335
250,363;  345,690;  319,105;  320,755
250,454;  295,057;  273,035;  275,615
250,546;  308,923;  285,926;  289,415
250,637;  283,457;  264,445;  261,845
250,729;  294,823;  266,505;  269,555
250,820;  322,690;  289,915;  292,965
250,912;  293,590;  262,355;  267,085
251,003;  300,823;  278,396;  280,475
251,095;  307,290;  282,086;  284,555
251,186;  295,023;  271,415;  274,775
251,277;  297,457;  271,986;  275,265
251,369;  299,923;  275,975;  275,105
251,460;  296,923;  271,456;  273,815
251,552;  311,590;  278,475;  279,655
251,643;  305,157;  268,796;  267,375
251,735;  307,423;  265,246;  267,375
251,826;  300,557;  258,016;  263,245
251,917;  330,790;  278,035;  279,115
252,009;  336,557;  273,396;  275,605
252,100;  334,623;  281,426;  283,345
252,191;  353,623;  289,996;  292,015
252,283;  342,257;  265,095;  267,705
252,374;  366,357;  278,296;  278,375
252,465;  392,290;  295,405;  298,605
252,557;  389,090;  283,576;  286,365
252,648;  388,023;  265,146;  268,635
252,739;  420,357;  280,516;  282,125
252,831;  421,957;  270,836;  280,355
252,922;  462,857;  282,296;  280,045
253,013;  495,323;  273,956;  284,285
253,104;  559,723;  270,076;  270,335
253,196;  672,823;  271,366;  271,175
253,287;  816,357;  281,836;  277,135
253,378; 1194,023;  276,276;  277,975
253,469; 3709,490;  272,385;  276,445
253,561;20762,857;  273,496;  278,855
253,652;41337,355;  282,266;  280,015
253,743; 6567,557;  276,216;  280,985
253,834;  610,957;  259,146;  265,875
253,926;  501,357;  262,605;  267,485
254,017;  479,657;  284,236;  290,235
254,108;  455,457;  291,836;  290,565
254,199;  430,557;  285,326;  291,185
254,290;  432,957;  312,725;  313,865
254,381;  419,323;  287,076;  291,155
254,472;  420,323;  291,935;  300,495
254,564;  413,890;  312,766;  307,565
254,655;  390,390;  304,755;  308,105
254,746;  350,523;  264,896;  264,025
254,837;  376,190;  293,105;  298,435
254,928;  361,090;  266,836;  271,975
255,019;  364,557;  283,505;  286,805
255,110;  366,690;  300,165;  301,665
255,201;  353,623;  281,155;  287,655
255,292;  383,423;  312,706;  316,275
255,383;  351,890;  275,785;  275,725
255,474;  344,657;  273,306;  273,095
255,566;  353,823;  283,926;  286,645
255,657;  347,723;  298,556;  302,445
255,748;  312,257;  271,415;  278,125
255,839;  323,023;  280,695;  282,485
255,930;  328,790;  287,866;  289,735
256,021;  332,023;  298,845;  298,115
256,112;  315,690;  278,456;  278,735
256,203;  346,523;  311,866;  313,365
256,294;  330,623;  293,496;  299,575
256,384;  310,190;  270,565;  275,715
256,475;  316,690;  290,996;  294,595
256,566;  312,590;  281,246;  287,825
256,657;  301,057;  278,945;  278,915
256,748;  304,057;  281,285;  284,675
256,839;  292,090;  274,426;  273,555
256,930;  307,623;  279,165;  283,055
257,021;  331,223;  304,155;  306,465
257,112;  318,890;  304,926;  309,235
257,203;  278,990;  258,445;  259,825
257,294;  277,123;  254,465;  262,175
257,385;  310,390;  288,526;  294,205
257,475;  301,490;  279,135;  278,545
257,566;  308,790;  287,586;  292,255
257,657;  285,357;  269,595;  270,025
257,748;  291,390;  275,935;  276,095
257,839;  298,523;  287,915;  286,025
257,930;  305,657;  285,736;  290,395
258,020;  284,490;  269,716;  271,535
258,111;  280,523;  262,225;  263,255
258,202;  309,057;  288,326;  289,935
258,293;  299,523;  284,655;  285,305
258,384;  326,157;  305,595;  307,665
258,474;  301,357;  288,676;  291,995
258,565;  276,623;  271,635;  273,435
258,656;  304,857;  292,966;  295,145
258,747;  291,690;  271,475;  275,425
258,837;  287,223;  274,246;  273,695
258,928;  286,090;  275,785;  278,605
259,019;  283,423;  268,415;  270,595
259,109;  285,723;  269,685;  269,425
259,200;  296,623;  286,105;  289,815
259,291;  287,490;  269,975;  271,655
259,381;  302,023;  293,026;  295,635
259,472;  307,157;  295,796;  296,545
259,563;  311,590;  303,065;  305,845
259,653;  291,423;  278,296;  281,385
259,744;  282,090;  268,826;  267,735
259,835;  313,790;  300,975;  302,815
259,925;  281,290;  271,505;  277,075
260,016;  294,290;  286,746;  287,585
260,107;  273,123;  258,035;  264,715
260,197;  295,323;  283,975;  286,325
260,288;  288,890;  274,565;  279,155
260,378;  280,690;  267,195;  271,275
260,469;  296,557;  285,915;  288,765
260,560;  275,957;  266,146;  269,495
260,650;  281,957;  271,736;  275,665
260,741;  287,790;  276,366;  279,035
260,831;  288,190;  272,855;  275,905
260,922;  278,090;  266,206;  269,545
261,012;  282,790;  277,665;  278,255
261,103;  312,423;  301,785;  302,875
261,193;  314,523;  302,086;  303,915
261,284;  279,723;  271,806;  273,005
261,374;  315,090;  296,385;  303,855
261,465;  295,190;  287,755;  289,435
261,555;  296,223;  282,255;  280,715
261,646;  300,657;  292,475;  294,375
261,736;  300,657;  287,435;  290,535
261,827;  293,857;  283,716;  284,935
261,917;  319,990;  311,736;  311,595
262,007;  297,123;  283,986;  288,075
262,098;  296,390;  289,445;  287,725
262,188;  340,690;  326,655;  333,475
262,279;  306,123;  300,185;  299,795
262,369;  295,423;  286,285;  289,225
262,459;  303,290;  288,246;  290,365
262,550;  310,923;  303,266;  301,565
262,640;  284,057;  273,005;  276,555
262,731;  304,223;  300,935;  299,335
262,821;  320,223;  310,535;  312,255
262,911;  304,790;  297,875;  298,285
263,002;  299,723;  289,625;  290,825
263,092;  312,090;  303,956;  306,295
263,182;  294,157;  284,806;  285,755
263,273;  290,257;  285,426;  289,395
263,363;  304,990;  300,746;  299,385
263,453;  273,523;  267,375;  268,605
263,543;  302,557;  289,815;  289,615
263,634;  274,423;  266,516;  266,365
263,724;  301,790;  292,586;  293,065
263,814;  311,890;  308,706;  308,885
263,904;  287,457;  281,966;  285,905
263,995;  333,057;  322,276;  322,325
264,085;  301,990;  295,855;  294,575
264,175;  304,490;  296,706;  296,385
264,265;  325,923;  321,105;  321,865
264,356;  283,957;  270,466;  274,385
264,446;  314,857;  308,996;  307,575
264,536;  305,457;  294,026;  297,515
264,626;  326,623;  318,486;  320,175
264,716;  309,723;  298,435;  303,275
264,806;  324,623;  308,776;  310,415
264,897;  269,190;  258,135;  258,615
264,987;  310,690;  303,535;  304,475
265,077;  312,990;  287,046;  292,545
265,167;  368,423;  310,216;  311,575
265,257;  339,923;  290,445;  290,535
265,347;  330,757;  294,336;  295,795
265,437;  322,157;  296,176;  300,635
265,527;  320,223;  293,155;  294,765
265,617;  288,090;  279,875;  285,145
265,708;  324,257;  314,216;  314,825
265,798;  315,057;  305,415;  307,055
265,888;  306,023;  300,716;  305,545
265,978;  300,390;  294,496;  295,825
266,068;  324,557;  310,155;  315,855
266,158;  301,823;  294,005;  297,205
266,248;  284,923;  274,016;  276,865
266,338;  322,290;  313,035;  314,815
266,428;  306,157;  300,635;  302,655
266,518;  320,123;  311,405;  315,615
266,608;  302,057;  299,725;  294,215
266,698;  276,857;  273,586;  276,245
266,788;  277,557;  274,456;  277,745
266,878;  337,090;  325,776;  330,865
266,968;  314,957;  306,725;  309,425
267,058;  303,357;  297,375;  302,895
267,147;  316,757;  301,845;  302,905
267,237;  302,557;  291,815;  295,765
267,327;  296,490;  286,755;  287,895
267,417;  310,123;  301,225;  303,385
267,507;  296,623;  292,176;  294,215
267,597;  289,457;  282,026;  283,655
267,687;  287,290;  285,165;  287,755
267,777;  286,690;  283,986;  284,615
267,867;  323,390;  312,125;  312,585
267,956;  309,990;  302,466;  304,005
268,046;  313,157;  305,466;  310,865
268,136;  306,523;  296,875;  298,905
268,226;  283,657;  274,885;  274,965
268,316;  286,457;  280,766;  280,845
268,406;  291,523;  289,516;  287,595
268,495;  292,257;  284,415;  287,935
268,585;  308,957;  306,716;  309,605
268,675;  284,090;  284,336;  285,535
268,765;  302,423;  296,355;  300,115
268,854;  290,490;  285,935;  286,715
268,944;  299,423;  291,646;  293,805
269,034;  294,390;  283,986;  289,715
269,124;  301,723;  287,216;  290,705
269,213;  293,123;  286,336;  285,525
269,303;  293,523;  290,466;  288,585
269,393;  307,957;  299,845;  298,345
269,483;  307,857;  300,966;  302,735
269,572;  293,890;  282,875;  284,665
269,662;  275,890;  276,105;  283,315
269,752;  318,323;  312,736;  315,705
269,841;  280,723;  266,046;  269,455
269,931;  293,090;  281,586;  283,075
270,021;  311,523;  300,766;  304,675
270,110;  289,123;  285,695;  288,925
270,200;  296,857;  291,665;  299,445
270,289;  279,090;  280,785;  281,105
270,379;  309,923;  301,466;  302,775
270,469;  296,857;  290,556;  289,955
270,558;  309,357;  303,655;  302,185
270,648;  291,157;  282,785;  284,885
270,737;  291,223;  288,526;  291,525
270,827;  319,057;  310,185;  313,455
270,916;  295,723;  286,935;  289,915
271,006;  297,690;  293,475;  292,885
271,096;  324,690;  317,005;  317,215
271,185;  295,890;  289,896;  289,145
271,275;  313,190;  300,706;  303,575
271,364;  283,357;  281,535;  285,725
271,454;  316,723;  308,255;  315,275
271,543;  300,290;  296,935;  297,745
271,633;  298,457;  293,926;  292,835
271,722;  294,657;  292,255;  296,455
271,812;  293,823;  286,296;  289,275
271,901;  302,123;  292,326;  293,765
271,990;  293,590;  291,836;  290,915
272,080;  298,190;  290,635;  294,915
272,169;  304,357;  301,905;  302,555
272,259;  298,823;  293,225;  292,695
272,348;  309,923;  305,796;  308,535
272,438;  302,123;  296,935;  293,635
272,527;  307,657;  303,996;  304,365
272,616;  311,823;  301,866;  305,295
272,706;  324,957;  320,935;  323,195
272,795;  319,557;  314,076;  315,755
272,884;  300,490;  297,076;  299,515
272,974;  328,123;  317,975;  319,965
273,063;  344,357;  338,206;  337,765
273,152;  311,957;  310,306;  307,735
273,242;  328,290;  320,276;  324,915
273,331;  327,990;  319,315;  322,835
273,420;  311,157;  301,105;  310,255
273,510;  316,890;  307,355;  308,155
273,599;  311,757;  303,255;  306,195
273,688;  312,323;  302,605;  301,885
273,778;  285,723;  285,065;  287,095
273,867;  324,790;  320,266;  317,015
273,956;  312,257;  303,725;  303,805
274,045;  277,223;  273,966;  275,965
274,135;  309,623;  303,905;  305,375
274,224;  296,357;  286,516;  290,045
274,313;  308,857;  305,586;  307,745
274,402;  287,423;  284,796;  287,085
274,491;  311,090;  310,975;  312,995
274,581;  309,690;  301,415;  302,765
274,670;  298,290;  293,146;  294,385
274,759;  304,823;  299,405;  300,435
274,848;  283,590;  276,655;  279,925
274,937;  296,290;  289,945;  287,635
275,026;  295,457;  285,616;  287,835
275,116;  324,057;  316,415;  315,805
275,205;  295,623;  266,926;  271,135
275,294;  327,690;  302,315;  304,335
275,383;  306,123;  299,905;  297,985
275,472;  297,857;  290,005;  290,825
275,561;  293,623;  290,505;  290,285
275,650;  314,157;  306,046;  306,435
275,739;  296,357;  294,776;  297,985
275,828;  281,290;  274,635;  277,965
275,917;  313,857;  312,065;  306,825
276,006;  307,023;  295,426;  296,835
276,095;  303,157;  294,526;  298,665
276,184;  312,890;  309,556;  307,945
276,273;  311,357;  303,105;  304,505
276,362;  277,123;  275,896;  278,535
276,451;  294,857;  291,306;  291,915
276,540;  299,290;  295,896;  296,105
276,629;  297,190;  292,576;  293,225
276,718;  270,523;  270,695;  274,545
276,807;  279,557;  271,625;  274,825
276,896;  287,123;  280,526;  284,495
276,985;  288,290;  283,616;  289,365
277,074;  307,323;  299,105;  300,525
277,163;  296,057;  294,746;  299,085
277,252;  288,357;  279,646;  276,465
277,341;  294,390;  281,236;  289,265
277,430;  283,557;  276,845;  279,355
277,519;  303,123;  298,956;  301,695
277,608;  261,023;  266,546;  267,775
277,696;  275,090;  266,975;  269,445
277,785;  286,457;  284,095;  283,485
277,874;  311,023;  299,605;  296,795
277,963;  293,323;  288,155;  289,995
278,052;  267,590;  264,776;  265,525
278,141;  296,757;  288,415;  290,745
278,229;  298,657;  290,146;  291,935
278,318;  270,357;  268,236;  271,495
278,407;  294,557;  285,576;  285,935
278,496;  295,323;  289,915;  291,965
278,585;  306,190;  300,486;  302,275
278,673;  269,057;  263,836;  266,715
278,762;  276,523;  266,176;  270,485
278,851;  294,657;  285,496;  286,035
278,940;  309,223;  303,685;  303,305
279,028;  303,023;  296,306;  299,585
279,117;  293,457;  282,725;  286,655
279,206;  284,390;  279,475;  284,105
279,294;  285,523;  284,396;  286,665
279,383;  290,623;  286,646;  287,335
279,472;  301,157;  298,095;  298,295
279,561;  288,490;  283,355;  284,975
279,649;  313,723;  308,535;  308,935
279,738;  257,990;  255,566;  255,215
279,827;  311,523;  306,785;  308,805
279,915;  278,557;  275,285;  276,335
280,004;  290,857;  286,565;  288,905
280,092;  313,590;  305,236;  306,635
280,181;  287,857;  280,516;  282,605
280,270;  297,823;  277,866;  281,595
280,358;  308,523;  291,366;  288,915
280,447;  273,857;  261,415;  264,455
280,535;  282,757;  276,016;  275,945
280,624;  285,557;  274,185;  276,805
280,713;  286,390;  277,146;  283,385
280,801;  306,123;  293,116;  293,805
280,890;  297,957;  289,716;  295,475
280,978;  291,290;  280,755;  281,945
281,067;  256,257;  250,676;  255,865
281,155;  287,090;  274,855;  275,705
281,244;  323,890;  313,595;  316,445
281,332;  298,890;  290,845;  293,825
281,421;  280,157;  271,605;  273,675
281,509;  292,157;  284,646;  282,415
281,598;  267,357;  262,435;  263,765
281,686;  290,890;  290,776;  288,945
281,775;  292,357;  285,516;  290,815
281,863;  284,290;  278,016;  279,225
281,951;  281,523;  267,665;  270,735
282,040;  313,990;  300,315;  301,115
282,128;  304,623;  288,375;  294,235
282,217;  277,357;  265,926;  266,075
282,305;  302,790;  294,796;  294,045
282,393;  291,990;  286,505;  284,595
282,482;  291,457;  279,535;  283,255
282,570;  276,757;  266,945;  270,215
282,658;  289,323;  276,116;  277,715
282,747;  279,023;  265,026;  267,905
282,835;  317,257;  306,076;  309,035
282,923;  276,023;  264,655;  267,805
283,012;  300,990;  291,366;  296,345
283,100;  275,190;  269,185;  274,675
283,188;  274,323;  261,125;  262,525
283,277;  288,157;  284,336;  284,745
283,365;  280,390;  271,676;  278,375
283,453;  275,057;  264,755;  270,455
283,542;  301,190;  290,896;  293,765
283,630;  281,190;  276,195;  278,595
283,718;  275,123;  271,195;  274,365
283,806;  251,723;  241,706;  247,485
283,894;  281,357;  274,336;  274,395
283,983;  290,957;  282,165;  282,605
284,071;  298,657;  285,285;  291,495
284,159;  310,490;  309,125;  314,805
284,247;  294,323;  287,466;  288,555
284,335;  293,757;  286,935;  287,485
284,424;  289,490;  283,915;  288,465
284,512;  294,423;  283,475;  286,175
284,600;  285,257;  279,415;  280,145
284,688;  319,690;  312,815;  317,115
284,776;  293,357;  286,815;  287,745
284,864;  312,823;  302,125;  308,655
284,952;  298,157;  289,625;  289,025
285,041;  301,923;  298,255;  298,145
285,129;  307,423;  299,435;  302,445
285,217;  309,757;  300,056;  303,885
285,305;  320,923;  318,676;  319,885
285,393;  284,323;  275,776;  278,695
285,481;  304,090;  296,665;  298,405
285,569;  289,323;  282,966;  285,145
285,657;  296,857;  295,165;  296,255
285,745;  296,057;  292,655;  293,125
285,833;  297,357;  289,505;  293,165
285,921;  305,423;  298,116;  300,945
286,009;  309,323;  301,105;  303,655
286,097;  302,390;  298,236;  301,315
286,185;  286,757;  284,405;  284,795
286,273;  286,823;  283,415;  284,655
286,361;  321,323;  307,915;  311,825
286,449;  301,423;  296,195;  294,565
286,537;  307,823;  304,105;  302,085
286,625;  297,723;  291,185;  293,415
286,713;  283,590;  275,806;  280,315
286,801;  311,623;  312,076;  307,795
286,889;  320,257;  319,435;  320,055
286,976;  295,357;  287,905;  291,205
287,064;  314,390;  307,635;  311,875
287,152;  308,857;  303,576;  305,585
287,240;  310,923;  309,185;  308,845
287,328;  294,690;  287,685;  281,755
287,416;  296,457;  290,975;  292,385
287,504;  302,723;  294,435;  298,285
287,591;  306,923;  298,176;  300,225
287,679;  284,957;  286,095;  286,145
287,767;  304,090;  298,206;  296,985
287,855;  310,223;  303,736;  307,515
287,943;  318,057;  306,716;  309,435
288,030;  294,357;  293,456;  291,795
288,118;  321,923;  318,255;  318,995
288,206;  281,423;  274,956;  275,705
288,294;  308,723;  301,986;  304,135
288,382;  309,190;  300,776;  303,615
288,469;  311,390;  304,396;  308,895
288,557;  296,390;  294,095;  292,615
288,645;  328,823;  323,396;  323,315
288,732;  285,790;  278,915;  279,235
288,820;  314,590;  304,576;  306,785
288,908;  310,423;  304,826;  303,915
288,995;  315,823;  310,945;  310,305
289,083;  303,257;  293,026;  292,935
289,171;  337,690;  320,165;  325,565
289,258;  371,890;  322,176;  324,305
289,346;  436,257;  326,266;  329,365
289,434;  319,257;  303,435;  306,185
289,521;  291,290;  280,415;  286,295
289,609;  326,690;  320,426;  325,405
289,697;  323,690;  312,336;  315,125
289,784;  305,557;  295,445;  295,775
289,872;  316,890;  306,905;  313,015
289,959;  289,657;  282,375;  283,415
290,047;  306,890;  296,546;  300,865
290,134;  273,023;  272,665;  273,815
290,222;  313,690;  308,915;  308,665
290,310;  308,523;  304,905;  307,145
290,397;  331,557;  328,505;  332,835
290,485;  302,590;  290,815;  293,005
290,572;  321,890;  313,225;  314,645
290,660;  313,190;  306,385;  306,205
290,747;  301,990;  295,165;  292,775
290,835;  308,257;  299,016;  302,505
290,922;  308,223;  304,016;  305,515
291,009;  306,657;  297,676;  301,715
291,097;  304,723;  297,926;  300,755
291,184;  332,390;  332,716;  338,585
291,272;  292,590;  282,966;  288,375
291,359;  285,757;  283,915;  289,305
291,447;  308,923;  303,086;  304,735
291,534;  329,023;  327,326;  323,005
291,621;  304,823;  302,845;  301,105
291,709;  287,123;  285,716;  283,705
291,796;  323,657;  320,146;  316,555
291,884;  297,423;  291,466;  296,115
291,971;  324,190;  315,065;  320,295
292,058;  296,123;  288,725;  288,985
292,146;  304,157;  293,746;  297,955
292,233;  289,157;  285,426;  284,765
292,320;  294,990;  294,306;  297,685
292,408;  316,490;  309,086;  308,565
292,495;  304,957;  290,565;  293,085
292,582;  292,223;  286,845;  287,375
292,669;  286,257;  281,415;  286,055
292,757;  287,823;  282,176;  283,865
292,844;  316,223;  312,935;  313,175
292,931;  288,057;  275,176;  277,485
293,018;  296,923;  291,516;  289,915
293,106;  307,690;  299,966;  303,035
293,193;  276,057;  272,415;  274,385
293,280;  304,757;  297,255;  303,635
293,367;  303,390;  296,956;  295,215
293,455;  294,690;  293,185;  294,155
293,542;  276,723;  275,695;  281,445
293,629;  282,523;  279,035;  281,855
293,716;  306,490;  305,646;  311,195
293,803;  295,923;  287,105;  287,695
293,890;  315,590;  310,336;  312,555
293,978;  291,190;  284,105;  290,755
294,065;  285,057;  286,725;  284,345
294,152;  304,423;  302,385;  304,355
294,239;  278,123;  275,646;  274,625
294,326;  292,390;  286,746;  290,635
294,413;  288,457;  278,046;  278,465
294,500;  298,223;  292,586;  295,255
294,587;  290,623;  283,915;  287,195
294,674;  312,457;  305,875;  306,925
294,761;  292,723;  288,896;  287,945
294,848;  295,123;  286,866;  294,115
294,935;  298,223;  290,746;  290,555
295,022;  282,657;  272,396;  274,105
295,109;  265,857;  258,466;  262,665
295,196;  301,690;  291,405;  295,265
295,283;  282,290;  281,176;  278,745
295,370;  316,023;  308,975;  312,155
295,457;  297,223;  289,986;  290,435
295,544;  289,723;  285,105;  287,985
295,631;  294,057;  290,165;  295,805
295,718;  275,657;  272,676;  274,015
295,805;  302,857;  296,225;  296,685
295,892;  308,823;  300,005;  304,445
295,979;  298,657;  291,266;  292,755
296,066;  305,623;  293,996;  296,145
296,153;  309,257;  296,026;  296,355
296,240;  312,323;  299,206;  300,535
296,327;  300,490;  285,206;  285,615
296,413;  320,890;  301,285;  305,075
296,500;  337,157;  302,755;  305,145
296,587;  520,790;  288,616;  286,065
296,674; 1620,823;  294,396;  297,335
296,761;  820,623;  300,095;  298,245
296,848;  304,890;  281,956;  285,815
296,934;  307,190;  290,966;  295,265
297,021;  303,457;  292,565;  292,975
297,108;  279,923;  276,366;  280,895
297,195;  297,890;  291,466;  294,705
297,282;  293,557;  286,535;  286,195
297,368;  311,457;  310,026;  305,975
297,455;  286,023;  279,155;  283,145
297,542;  319,823;  311,375;  313,235
297,629;  307,090;  299,016;  300,205
297,715;  310,523;  308,285;  310,385
297,802;  305,223;  300,466;  303,285
297,889;  322,457;  311,716;  313,025
297,975;  325,023;  322,836;  323,685
298,062;  316,023;  310,505;  312,995
298,149;  278,990;  273,505;  274,905
298,235;  299,390;  291,135;  294,075
298,322;  301,423;  294,806;  292,785
298,409;  315,090;  311,195;  312,715
298,495;  292,023;  285,435;  283,435
298,582;  314,857;  307,516;  308,065
298,669;  301,123;  290,526;  294,245
298,755;  300,223;  299,065;  302,235
298,842;  311,957;  304,755;  309,095
298,928;  305,290;  303,855;  304,595
299,015;  299,557;  294,896;  296,705
299,102;  314,823;  318,986;  320,565
299,188;  324,623;  315,956;  316,045
299,275;  318,057;  309,926;  309,365
299,361;  288,457;  278,875;  281,665
299,448;  310,190;  312,466;  310,885
299,534;  313,157;  312,355;  312,735
299,621;  308,957;  304,655;  303,865
299,707;  308,257;  299,016;  304,675
299,794;  316,557;  319,885;  319,685
299,880;  326,690;  317,076;  318,325
299,967;  311,523;  296,345;  296,295
300,053;  304,590;  295,935;  299,065
300,140;  333,157;  323,086;  328,875
300,226;  317,657;  313,885;  313,595
300,312;  307,557;  307,276;  306,695
300,399;  314,823;  305,505;  308,465
300,485;  308,490;  297,776;  301,725
300,572;  284,423;  281,655;  281,655
300,658;  296,057;  297,216;  294,585
300,744;  312,090;  310,706;  311,315
300,831;  317,223;  313,595;  318,275
300,917;  325,923;  321,676;  320,915
301,004;  315,323;  311,556;  311,015
301,090;  282,323;  277,785;  280,095
301,176;  295,090;  284,255;  288,205
301,263;  320,023;  313,676;  314,925
301,349;  296,823;  289,475;  293,305
301,435;  284,823;  284,276;  285,095
301,521;  324,757;  314,625;  313,245
301,608;  320,657;  314,695;  315,515
301,694;  301,857;  297,896;  300,535
301,780;  306,723;  303,046;  298,285
301,867;  292,057;  280,836;  285,265
301,953;  305,423;  296,595;  301,165
302,039;  382,057;  295,116;  297,515
302,125;  542,457;  298,445;  304,125
302,211;  364,757;  332,926;  334,115
302,298;  355,457;  301,926;  305,295
302,384;  301,957;  281,116;  287,095
302,470;  301,723;  289,505;  291,305
302,556;  312,490;  301,935;  305,645
302,642;  299,257;  293,456;  295,155
302,729;  304,323;  289,306;  293,525
302,815;  327,123;  317,966;  319,775
302,901;  297,223;  296,475;  298,745
302,987;  314,890;  307,716;  308,245
303,073;  302,023;  304,185;  302,795
303,159;  300,090;  296,945;  298,695
303,245;  287,757;  284,336;  290,495
303,331;  289,457;  283,486;  286,455
303,417;  298,857;  294,556;  296,145
303,503;  312,623;  310,046;  312,155
303,590;  292,690;  289,146;  291,705
303,676;  305,290;  299,505;  300,385
303,762;  295,323;  287,185;  287,835
303,848;  319,557;  311,026;  312,055
303,934;  317,190;  304,915;  307,775
304,020;  312,457;  301,796;  304,745
304,106;  314,857;  309,975;  314,015
304,192;  299,857;  291,796;  296,765
304,278;  308,557;  302,896;  304,455
304,364;  323,690;  323,026;  324,755
304,450;  306,890;  301,496;  304,095
304,535;  312,157;  304,005;  304,245
304,621;  306,257;  301,565;  302,205
304,707;  308,623;  306,296;  307,635
304,793;  323,490;  318,625;  318,575
304,879;  312,757;  306,776;  310,585
304,965;  319,757;  312,845;  313,365
305,051;  313,323;  308,616;  311,355
305,137;  325,323;  318,146;  324,235
305,223;  294,823;  291,445;  293,725
305,309;  310,557;  313,496;  317,755
305,394;  314,457;  311,996;  311,465
305,480;  306,157;  299,426;  304,775
305,566;  312,157;  309,355;  310,525
305,652;  313,690;  313,605;  317,885
305,738;  353,723;  349,206;  353,435
305,824;  319,890;  316,016;  315,095
305,909;  324,723;  323,815;  325,155
305,995;  298,690;  289,595;  290,025
306,081;  346,857;  348,345;  350,435
306,167;  307,357;  303,966;  307,875
306,252;  326,690;  324,375;  325,505
306,338;  340,357;  331,366;  335,515
306,424;  315,323;  306,595;  307,415
306,510;  323,223;  316,105;  319,795
306,595;  323,123;  323,685;  322,125
306,681;  315,123;  316,926;  318,895
306,767;  311,023;  305,336;  309,425
306,852;  337,590;  328,255;  331,375
306,938;  324,357;  325,796;  325,905
307,024;  302,890;  302,875;  304,755
307,109;  344,590;  336,065;  338,965
307,195;  319,690;  316,326;  318,385
307,281;  320,257;  318,716;  318,575
307,366;  319,390;  313,345;  310,455
307,452;  322,923;  312,426;  316,335
307,537;  299,357;  296,776;  298,485
307,623;  295,490;  292,105;  296,985
307,709;  318,123;  309,885;  310,795
307,794;  295,490;  288,576;  291,835
307,880;  328,157;  320,236;  319,735
307,965;  314,357;  307,456;  307,525
308,051;  297,490;  297,195;  298,065
308,136;  303,390;  297,165;  296,745
308,222;  310,157;  300,366;  302,045
308,307;  299,090;  295,116;  296,645
308,393;  296,390;  295,535;  300,335
308,478;  323,557;  321,826;  318,975
308,564;  287,990;  295,516;  288,925
308,649;  312,190;  308,496;  308,295
308,735;  304,990;  294,155;  300,535
308,820;  323,957;  320,655;  319,455
308,906;  300,790;  291,625;  300,515
308,991;  337,657;  341,076;  338,375
309,076;  320,190;  319,336;  320,645
309,162;  282,557;  283,945;  283,805
309,247;  313,723;  309,945;  308,415
309,333;  297,823;  291,646;  297,855
309,418;  302,823;  298,665;  301,955
309,503;  304,357;  297,646;  300,235
309,589;  306,057;  303,725;  305,345
309,674;  292,590;  290,945;  289,235
309,759;  307,457;  303,315;  304,195
309,845;  317,490;  311,016;  312,415
309,930;  313,657;  305,966;  307,375
310,015;  281,090;  276,095;  276,835
310,101;  321,123;  315,616;  319,905
310,186;  290,790;  285,426;  288,565
310,271;  298,923;  297,296;  298,295
310,357;  298,190;  297,526;  296,455
310,442;  313,357;  302,445;  303,865
310,527;  303,857;  297,766;  301,125
310,612;  281,090;  278,195;  281,425
310,698;  323,423;  319,725;  321,135
310,783;  308,990;  301,176;  302,685
310,868;  299,323;  294,285;  295,125
310,953;  291,157;  284,165;  285,195
311,038;  320,023;  311,146;  310,075
311,124;  300,990;  294,635;  290,925
311,209;  284,357;  276,736;  277,355
311,294;  319,323;  310,206;  312,575
311,379;  283,290;  276,785;  277,345
311,464;  303,090;  297,405;  297,635
311,549;  297,957;  282,385;  284,505
311,634;  290,757;  290,396;  286,805
311,719;  319,357;  316,016;  315,415
311,805;  296,723;  289,266;  291,605
311,890;  305,690;  295,165;  295,925
311,975;  297,890;  281,526;  286,055
312,060;  307,323;  298,146;  302,435
312,145;  285,757;  277,586;  276,025
312,230;  316,257;  290,815;  296,495
312,315;  334,090;  294,065;  296,045
312,400;  397,057;  296,396;  299,795
312,485; 1544,690;  290,535;  292,475
312,570; 1274,723;  277,125;  279,615
312,655;  354,523;  308,176;  313,325
312,740;  330,690;  301,616;  302,005
312,825;  338,657;  304,105;  307,725
312,910;  363,023;  307,736;  309,235
312,995;  445,990;  296,236;  298,245
313,080; 1918,657;  285,655;  286,805
313,165; 2202,823;  303,565;  305,305
313,250;  375,023;  287,276;  287,825
313,335;  319,523;  307,435;  312,125
313,419;  288,690;  267,466;  268,635
313,504;  329,190;  313,355;  315,225
313,589;  306,723;  295,216;  297,545
313,674;  318,090;  307,206;  310,085
313,759;  289,990;  281,556;  282,625
313,844;  303,457;  292,776;  291,005
313,929;  297,990;  289,945;  291,695
314,014;  320,323;  313,306;  315,005
314,098;  310,223;  299,035;  300,425
314,183;  272,623;  263,505;  263,795
314,268;  308,090;  296,496;  298,955
314,353;  308,223;  302,026;  306,185
314,438;  317,823;  306,905;  311,515
314,522;  317,723;  309,486;  308,535
314,607;  310,857;  307,565;  307,855
314,692;  304,257;  301,885;  303,855
314,777;  297,223;  291,766;  292,395
314,861;  285,357;  277,285;  276,385
314,946;  322,990;  315,116;  317,565
315,031;  301,190;  291,875;  294,115
315,115;  310,090;  306,206;  308,065
315,200;  319,257;  312,146;  313,065
315,285;  288,123;  289,486;  289,595
315,369;  289,423;  287,945;  288,545
315,454;  317,790;  311,905;  311,025
315,539;  315,390;  310,246;  307,795
315,623;  314,323;  309,426;  313,225
315,708;  336,123;  335,605;  336,825
315,793;  300,157;  297,986;  298,155
315,877;  307,923;  302,975;  305,445
315,962;  296,023;  289,105;  291,925
316,046;  324,090;  317,065;  319,225
316,131;  337,557;  334,516;  337,215
316,216;  320,190;  310,315;  310,785
316,300;  300,590;  303,345;  302,165
316,385;  330,757;  325,315;  324,305
316,469;  333,090;  330,625;  331,955
316,554;  302,823;  296,005;  298,425
316,638;  300,557;  296,725;  301,565
316,723;  295,690;  292,546;  293,795
316,807;  303,923;  299,595;  299,275
316,892;  289,690;  288,975;  289,925
316,976;  316,523;  314,405;  316,505
317,061;  308,457;  306,035;  305,965
317,145;  327,190;  327,655;  325,965
317,230;  323,457;  321,505;  319,905
317,314;  279,790;  275,565;  275,085
317,398;  312,123;  310,706;  312,245
317,483;  292,823;  290,026;  291,085
317,567;  322,523;  315,326;  317,865
317,652;  283,890;  283,526;  286,625
317,736;  310,990;  308,776;  309,285
317,820;  332,357;  329,005;  334,665
317,905;  308,923;  306,706;  307,035
317,989;  297,823;  298,285;  300,875
318,073;  304,623;  298,076;  297,705
318,158;  290,823;  284,966;  285,565
318,242;  300,723;  296,845;  299,095
318,326;  287,223;  283,155;  284,015
318,411;  303,357;  295,125;  296,565
318,495;  287,457;  285,776;  287,165
318,579;  291,923;  288,746;  289,305
318,664;  286,490;  280,315;  284,255
318,748;  305,523;  305,996;  310,145
318,832;  291,823;  290,806;  289,475
318,916;  277,923;  274,785;  277,335
319,001;  304,957;  299,945;  301,485
319,085;  293,923;  292,885;  290,905
319,169;  293,790;  293,396;  294,485
319,253;  291,457;  287,216;  285,525
319,337;  303,090;  306,246;  304,885
319,422;  315,990;  316,125;  313,225
319,506;  288,890;  283,326;  285,905
319,590;  305,290;  303,915;  305,525
319,674;  299,890;  291,926;  295,405
319,758;  298,623;  295,165;  300,215
319,842;  308,823;  306,135;  309,155
319,926;  294,390;  294,815;  295,205
320,010;  273,090;  267,046;  269,575
320,095;  292,023;  280,926;  284,685
320,179;  284,523;  279,125;  281,175
320,263;  288,057;  277,385;  285,805
320,347;  278,857;  271,296;  279,075
320,431;  282,090;  273,435;  274,355
320,515;  296,723;  296,375;  299,935
320,599;  275,790;  269,866;  273,825
320,683;  309,090;  305,706;  305,495
320,767;  270,290;  266,236;  266,205
320,851;  283,423;  281,855;  287,785
320,935;  319,423;  312,565;  318,275
321,019;  295,657;  292,975;  290,075
321,103;  277,490;  278,135;  280,585
321,187;  275,957;  273,165;  273,265
321,271;  293,123;  294,616;  296,825
321,355;  284,157;  281,595;  283,805
321,439;  301,790;  301,216;  301,725
321,523;  286,423;  282,266;  284,705
321,606;  291,390;  287,426;  288,215
321,690;  289,257;  287,026;  288,215
321,774;  290,823;  288,336;  292,205
321,858;  293,123;  292,966;  291,945
321,942;  298,523;  294,276;  298,975
322,026;  285,990;  283,315;  282,695
322,110;  298,290;  293,146;  295,755
322,194;  303,023;  295,355;  301,055
322,277;  290,357;  286,135;  287,285
322,361;  281,190;  278,595;  281,215
322,445;  295,323;  289,315;  291,095
322,529;  301,657;  297,716;  299,645
322,613;  294,623;  297,206;  297,795
322,696;  268,823;  267,695;  272,865
322,780;  289,057;  283,026;  283,485
322,864;  279,023;  272,625;  279,835
322,948;  289,923;  292,326;  295,965
323,031;  285,390;  281,565;  282,215
323,115;  292,857;  284,586;  285,215
323,199;  299,123;  296,565;  299,105
323,282;  318,290;  307,496;  310,065
323,366;  294,690;  287,296;  293,625
323,450;  279,757;  273,496;  275,835
323,533;  318,390;  314,576;  317,415
323,617;  275,923;  268,695;  271,585
323,701;  287,590;  281,105;  283,575
323,784;  303,990;  292,576;  294,205
323,868;  302,290;  297,866;  299,875
323,952;  300,490;  290,966;  294,175
324,035;  308,557;  305,926;  310,825
324,119;  297,290;  295,466;  298,455
324,202;  289,823;  286,836;  292,745
324,286;  289,223;  284,986;  286,605
324,370;  300,023;  293,105;  296,765
324,453;  303,090;  299,616;  301,745
324,537;  301,623;  294,426;  298,035
324,620;  294,457;  286,635;  291,765
324,704;  278,390;  270,445;  276,525
324,787;  294,357;  294,875;  296,265
324,871;  315,457;  310,986;  315,255
324,954;  318,223;  312,246;  315,985
325,038;  308,523;  306,466;  306,985
325,121;  316,957;  308,695;  312,075
325,205;  291,490;  290,396;  293,295
325,288;  286,690;  279,556;  285,675
325,371;  299,023;  298,945;  302,395
325,455;  319,223;  314,026;  312,045
325,538;  292,890;  281,516;  287,185
325,622;  321,190;  320,806;  321,295
325,705;  296,157;  297,716;  298,675
325,788;  314,690;  313,625;  316,645
325,872;  302,823;  300,796;  300,745
325,955;  321,857;  319,845;  325,065
326,039;  309,657;  309,576;  312,795
326,122;  307,990;  310,746;  311,665
326,205;  312,790;  311,806;  310,235
326,289;  318,790;  313,986;  319,245
326,372;  304,390;  294,746;  299,195
326,455;  330,223;  323,095;  324,405
326,538;  319,223;  312,336;  316,545
326,622;  322,123;  318,396;  320,075
326,705;  291,990;  287,315;  287,875
326,788;  330,557;  321,266;  322,405
326,871;  322,890;  315,576;  317,965
326,955;  319,890;  313,836;  315,225
327,038;  313,190;  310,116;  310,855
327,121;  304,623;  301,516;  307,855
327,204;  313,257;  313,216;  314,045
327,288;  334,790;  328,956;  332,375
327,371;  299,790;  288,185;  296,955
327,454;  323,223;  313,065;  313,845
327,537;  303,257;  299,815;  302,435
327,620;  333,123;  322,935;  330,145
327,703;  311,490;  309,076;  310,615
327,786;  315,357;  311,076;  312,115
327,870;  330,557;  323,155;  328,715
327,953;  307,757;  301,155;  305,785
328,036;  297,057;  293,105;  299,035
328,119;  322,523;  317,576;  321,135
328,202;  308,323;  301,885;  305,875
328,285;  325,757;  326,776;  329,015
328,368;  324,623;  320,935;  322,625
328,451;  319,323;  320,635;  322,565
328,534;  307,957;  301,266;  307,075
328,617;  312,590;  305,676;  311,785
328,700;  326,423;  326,505;  326,695
328,783;  325,557;  320,785;  322,875
328,866;  319,023;  314,095;  319,935
328,949;  324,790;  319,966;  326,555
329,032;  305,957;  297,826;  300,605
329,115;  294,857;  290,905;  295,945
329,198;  285,357;  282,956;  283,785
329,281;  302,757;  299,336;  298,465
329,364;  315,257;  316,246;  319,245
329,447;  310,190;  307,176;  309,255
329,530;  329,590;  328,155;  328,175
329,613;  310,957;  300,565;  306,725
329,696;  337,157;  326,806;  330,715
329,778;  318,657;  311,306;  316,915
329,861;  300,557;  295,236;  299,565
329,944;  330,623;  321,685;  327,225
330,027;  316,423;  311,576;  315,115
330,110;  310,023;  307,595;  311,705
330,193;  297,623;  295,306;  299,955
330,275;  318,657;  312,296;  315,835
330,358;  302,457;  291,776;  296,185
330,441;  332,023;  323,586;  325,365
330,524;  316,690;  305,216;  311,095
330,607;  310,057;  304,345;  306,905
330,689;  313,890;  313,105;  314,535
330,772;  315,557;  311,105;  312,425
330,855;  330,390;  325,065;  327,855
330,938;  323,357;  312,315;  321,275
331,020;  314,957;  317,176;  320,535
331,103;  298,657;  293,035;  294,505
331,186;  309,923;  305,146;  307,085
331,268;  299,623;  293,565;  298,695
331,351;  315,690;  313,026;  316,455
331,434;  318,757;  308,385;  312,645
331,516;  314,757;  319,076;  321,185
331,599;  306,990;  297,095;  301,425
331,682;  314,323;  310,736;  310,985
331,764;  300,857;  293,326;  297,915
331,847;  318,357;  313,716;  315,705
331,929;  288,590;  290,026;  293,225
332,012;  314,323;  309,625;  310,055
332,095;  328,557;  323,306;  326,625
332,177;  321,557;  320,806;  324,285
332,260;  326,590;  327,526;  328,035
332,342;  315,357;  309,246;  314,445
332,425;  317,057;  312,516;  311,505
332,507;  314,723;  308,526;  311,575
332,590;  295,723;  287,595;  291,655
332,672;  298,057;  294,885;  298,455
332,755;  303,323;  306,855;  311,605
332,837;  315,723;  310,716;  312,255
332,920;  316,857;  309,076;  315,155
333,002;  327,490;  325,676;  328,895
333,085;  311,323;  313,375;  315,165
333,167;  297,890;  296,875;  298,575
333,249;  305,623;  294,526;  298,145
333,332;  294,057;  293,296;  297,715
333,414;  301,490;  300,035;  304,875
333,497;  302,090;  300,255;  302,305
333,579;  302,557;  300,996;  306,375
333,661;  319,957;  319,706;  320,745
333,744;  295,390;  293,695;  297,125
333,826;  307,190;  305,766;  306,065
333,908;  322,057;  313,896;  316,665
333,991;  303,690;  291,266;  291,545
334,073;  461,590;  312,706;  318,525
334,155;  367,390;  304,086;  305,525
334,238;  326,890;  318,576;  326,145
334,320;  305,457;  297,046;  300,585
334,402;  303,623;  302,996;  304,895
334,485;  302,390;  303,655;  304,015
334,567;  302,123;  299,776;  301,975
334,649;  280,857;  278,426;  282,925
334,731;  321,390;  313,456;  317,305
334,813;  327,290;  315,605;  320,355
334,896;  297,657;  290,185;  294,595
334,978;  305,290;  309,165;  302,585
335,060;  307,523;  304,255;  304,235
335,142;  301,857;  301,665;  302,275
335,224;  312,857;  309,766;  311,745
335,307;  300,923;  297,456;  298,965
335,389;  315,690;  310,385;  317,305
335,471;  302,790;  299,896;  306,115
335,553;  316,823;  319,866;  318,905
335,635;  316,757;  312,836;  315,315
335,717;  295,557;  298,195;  300,145
335,799;  324,557;  322,695;  323,585
335,881;  281,190;  278,385;  282,845
335,963;  294,390;  291,796;  293,005
336,045;  294,857;  295,516;  301,085
336,128;  277,790;  270,945;  275,225
336,210;  290,757;  288,996;  292,295
336,292;  299,423;  297,845;  300,615
336,374;  308,857;  300,956;  306,155
336,456;  289,157;  285,616;  288,495
336,538;  307,923;  303,165;  304,435
336,620;  311,890;  310,576;  312,205
336,702;  290,590;  294,766;  294,235
336,783;  309,423;  302,556;  304,225
336,865;  312,023;  304,176;  305,725
336,947;  316,523;  308,486;  311,205
337,029;  284,423;  281,826;  282,945
337,111;  321,523;  316,266;  316,735
337,193;  284,957;  280,986;  284,795
337,275;  313,257;  310,815;  314,535
337,357;  324,757;  318,815;  324,805
337,439;  310,057;  305,255;  310,655
337,521;  280,023;  277,225;  280,915
337,602;  302,390;  298,435;  301,085
337,684;  321,357;  315,635;  317,455
337,766;  313,223;  312,266;  312,305
337,848;  302,023;  295,086;  301,025
337,930;  307,123;  303,165;  306,525
338,012;  299,490;  298,586;  299,555
338,093;  317,823;  312,396;  315,895
338,175;  320,590;  318,195;  321,575
338,257;  308,857;  306,945;  309,225
338,339;  303,090;  294,086;  300,165
338,420;  311,890;  310,986;  310,895
338,502;  301,090;  298,836;  304,265
338,584;  290,757;  286,736;  289,235
338,666;  305,123;  303,426;  302,365
338,747;  336,457;  330,806;  334,875
338,829;  308,057;  309,176;  309,265
338,911;  295,957;  296,236;  298,915
338,992;  298,823;  295,746;  294,435
339,074;  310,357;  306,155;  307,855
339,156;  299,623;  298,176;  303,395
339,237;  329,423;  325,035;  327,765
339,319;  299,490;  294,935;  300,045
339,400;  314,490;  309,065;  311,225
339,482;  279,957;  278,165;  280,605
339,564;  317,257;  317,026;  316,575
339,645;  309,957;  304,595;  308,105
339,727;  292,623;  290,216;  294,375
339,808;  325,257;  317,685;  322,555
339,890;  300,123;  299,956;  302,415
339,971;  316,923;  307,016;  315,055
340,053;  341,557;  336,746;  335,255
340,134;  295,723;  296,535;  298,415
340,216;  319,157;  315,556;  319,645
340,297;  303,423;  298,396;  301,525
340,379;  315,323;  314,736;  316,975
340,460;  303,623;  306,685;  306,615
340,542;  303,023;  294,535;  297,775
340,623;  312,957;  307,926;  312,435
340,705;  305,490;  297,516;  295,795
340,786;  291,357;  289,685;  291,925
340,868;  309,423;  308,826;  304,055
340,949;  283,723;  285,605;  286,145
341,030;  327,857;  321,435;  328,715
341,112;  285,523;  280,565;  284,075
341,193;  275,390;  270,135;  273,595
341,274;  321,857;  322,176;  320,965
341,356;  323,890;  320,716;  321,795
341,437;  298,857;  301,635;  300,825
341,518;  312,057;  307,176;  314,795
341,600;  324,523;  320,866;  322,465
341,681;  332,223;  328,866;  332,375
341,762;  328,890;  325,206;  323,705
341,844;  288,557;  287,146;  292,185
341,925;  311,657;  308,225;  311,205
342,006;  333,557;  320,426;  323,055
342,087;  295,790;  288,095;  292,095
342,169;  311,790;  307,026;  309,845
342,250;  291,657;  286,935;  285,935
342,331;  301,323;  298,706;  299,075
342,412;  311,357;  307,655;  310,045
342,493;  293,257;  289,415;  293,325
342,575;  323,523;  327,095;  327,355
342,656;  318,123;  318,466;  318,265
342,737;  336,357;  329,836;  330,295
342,818;  302,890;  307,996;  309,015
342,899;  314,157;  314,505;  317,165
342,980;  310,790;  306,695;  310,155
343,061;  305,990;  303,065;  304,715
343,143;  321,823;  319,535;  319,565
343,224;  311,390;  306,706;  305,915
343,305;  301,057;  299,625;  303,115
343,386;  301,623;  297,996;  300,475
343,467;  305,890;  303,155;  305,535
343,548;  302,157;  304,176;  305,935
343,629;  316,157;  316,405;  317,625
343,710;  328,090;  322,766;  321,015
343,791;  326,790;  325,065;  327,935
343,872;  300,957;  298,975;  297,795
343,953;  321,790;  314,826;  316,625
344,034;  318,157;  319,475;  324,485
344,115;  308,390;  304,255;  303,425
344,196;  302,890;  298,935;  302,165
344,277;  297,257;  293,306;  294,615
344,358;  311,523;  304,755;  307,345
344,439;  295,157;  293,975;  294,205
344,520;  300,690;  298,546;  300,975
344,601;  318,690;  314,646;  315,525
344,681;  301,023;  302,426;  303,825
344,762;  293,890;  283,466;  287,625
344,843;  281,157;  275,996;  281,125
344,924;  307,657;  303,635;  306,085
345,005;  288,657;  287,176;  288,725
345,086;  307,390;  307,665;  309,725
345,167;  292,590;  293,986;  295,575
345,247;  326,890;  323,896;  328,905
345,328;  319,023;  315,315;  317,705
345,409;  311,523;  307,056;  309,355
345,490;  312,257;  308,415;  314,245
345,571;  311,890;  304,875;  312,045
345,651;  279,523;  279,456;  279,055
345,732;  303,290;  307,285;  312,275
345,813;  315,423;  311,836;  317,355
345,894;  287,890;  285,785;  287,595
345,974;  310,690;  309,556;  311,845
346,055;  297,223;  296,435;  295,735
346,136;  312,523;  304,405;  306,245
346,216;  326,990;  324,945;  328,565
346,297;  307,757;  306,565;  304,225
346,378;  288,090;  291,996;  294,005
346,458;  307,057;  307,375;  313,405
346,539;  307,390;  302,306;  305,975
346,620;  306,390;  305,815;  306,685
346,700;  287,357;  288,755;  289,765
346,781;  282,823;  284,556;  286,765
346,861;  309,490;  304,336;  307,325
346,942;  306,457;  304,336;  302,715
347,023;  318,023;  317,885;  316,005
347,103;  299,690;  297,396;  302,825
347,184;  299,190;  294,475;  296,785
347,264;  297,557;  294,565;  296,805
347,345;  292,857;  290,526;  295,525
347,425;  291,790;  285,125;  290,565
347,506;  288,823;  283,595;  283,195
347,586;  293,790;  289,725;  292,435
347,667;  307,757;  307,616;  304,445
347,747;  310,523;  311,116;  310,775
347,828;  301,923;  296,486;  296,465
347,908;  305,223;  303,306;  307,175
347,988;  302,823;  298,655;  306,125
348,069;  317,990;  311,056;  311,395
348,149;  311,423;  303,956;  309,065
348,230;  321,190;  309,956;  310,945
348,310;  287,490;  284,185;  285,715
348,390;  288,557;  288,526;  288,625
348,471;  308,623;  303,665;  305,125
348,551;  293,823;  290,695;  293,935
348,632;  291,823;  289,505;  294,065
348,712;  295,090;  292,706;  295,115
348,792;  333,857;  329,836;  329,985
348,873;  280,190;  281,905;  283,045
348,953;  291,123;  289,845;  290,395
349,033;  302,190;  297,466;  299,465
349,113;  284,023;  286,076;  286,905
349,194;  309,990;  301,595;  304,825
349,274;  308,257;  304,796;  307,395
349,354;  307,923;  303,046;  308,435
349,434;  300,623;  300,116;  301,925
349,515;  320,423;  316,486;  322,185
349,595;  301,523;  302,206;  302,035
349,675;  311,390;  305,635;  308,015
349,755;  300,023;  296,746;  297,615
349,835;  304,123;  301,195;  307,695
349,916;  302,457;  298,435;  303,915
349,996;  294,557;  291,105;  291,745
350,076;  316,557;  312,375;  317,645
350,156;  286,657;  284,836;  287,665
350,236;  317,423;  314,116;  311,925
350,316;  293,057;  292,975;  295,765
350,396;  302,323;  305,646;  310,065
350,476;  301,657;  301,826;  304,275
350,556;  294,757;  293,966;  299,935
350,637;  319,223;  321,005;  321,825
350,717;  296,957;  288,445;  291,825
350,797;  304,457;  302,616;  305,905
350,877;  300,623;  289,875;  294,705
350,957;  300,990;  297,635;  300,095
351,037;  302,990;  298,556;  303,455
351,117;  300,157;  296,276;  296,555
351,197;  304,290;  303,366;  306,305
351,277;  306,690;  300,556;  301,575
351,357;  311,990;  308,806;  314,445
351,437;  306,290;  306,105;  307,755
351,516;  318,923;  317,986;  318,355
351,596;  296,390;  292,896;  296,025
351,676;  289,390;  290,405;  294,265
351,756;  326,657;  323,426;  326,135
351,836;  312,490;  313,866;  317,935
351,916;  297,857;  297,905;  298,975
351,996;  309,923;  303,996;  305,265
352,076;  304,490;  303,486;  303,085
352,156;  319,523;  319,556;  320,405
352,235;  301,157;  301,255;  300,955
352,315;  315,823;  312,456;  314,415
352,395;  311,823;  308,206;  309,425
352,475;  324,223;  315,405;  320,955
352,555;  332,223;  330,236;  330,635
352,634;  324,657;  321,956;  326,705
352,714;  303,690;  302,595;  304,055
352,794;  360,123;  354,466;  358,075
352,874;  319,257;  314,685;  317,555
352,953;  335,957;  337,676;  339,095
353,033;  323,090;  319,306;  320,925
353,113;  335,757;  332,135;  336,575
353,193;  327,990;  328,046;  329,935
353,272;  335,357;  333,135;  334,365
353,352;  313,790;  307,035;  311,285
353,432;  348,023;  343,005;  347,495
353,511;  328,857;  326,185;  330,665
353,591;  363,957;  361,616;  362,555
353,671;  335,323;  331,926;  333,015
353,750;  335,857;  332,296;  331,275
353,830;  316,790;  313,646;  317,015
353,909;  342,057;  339,836;  343,655
353,989;  322,490;  317,385;  320,255
354,069;  318,057;  319,456;  319,155
354,148;  342,757;  335,035;  339,585
354,228;  317,323;  315,695;  316,905
354,307;  336,590;  329,405;  332,345
354,387;  328,823;  322,095;  322,965
354,466;  315,123;  311,635;  316,045
354,546;  345,623;  335,135;  337,645
354,625;  320,257;  319,815;  320,355
354,705;  326,857;  324,246;  326,865
354,784;  317,890;  316,445;  318,195
354,864;  316,623;  316,635;  317,385
354,943;  338,023;  333,695;  339,105
355,023;  314,923;  310,996;  312,285
355,102;  359,157;  362,866;  363,435
355,181;  318,090;  315,966;  318,045
355,261;  340,223;  338,056;  342,165
355,340;  307,023;  303,845;  307,115
355,420;  351,557;  340,105;  342,305
355,499;  327,857;  322,975;  325,635
355,578;  312,090;  315,276;  316,885
355,658;  331,390;  332,875;  333,745
355,737;  325,890;  317,576;  319,005
355,816;  321,590;  323,276;  324,605
355,896;  323,157;  316,026;  321,355
355,975;  314,423;  307,355;  310,055
356,054;  309,790;  311,935;  312,455
356,133;  295,857;  290,565;  293,305
356,213;  330,590;  324,845;  324,825
356,292;  309,290;  304,016;  309,325
356,371;  317,623;  314,146;  314,035
356,451;  332,857;  324,755;  327,685
356,530;  348,657;  349,496;  350,795
356,609;  313,957;  311,146;  315,535
356,688;  320,290;  316,475;  316,165
356,767;  311,623;  304,695;  309,855
356,846;  330,523;  327,035;  327,235
356,926;  342,790;  340,016;  343,965
357,005;  322,823;  318,345;  318,565
357,084;  311,523;  304,466;  308,385
357,163;  323,123;  317,706;  317,185
357,242;  321,757;  320,146;  319,515
357,321;  318,057;  314,496;  316,575
357,400;  322,090;  321,236;  318,865
357,479;  318,757;  317,725;  320,795
357,559;  325,890;  321,405;  325,705
357,638;  301,090;  300,616;  298,815
357,717;  309,523;  313,746;  311,555
357,796;  332,990;  329,266;  330,875
357,875;  309,557;  314,466;  313,455
357,954;  318,223;  310,155;  313,855
358,033;  314,690;  323,405;  320,935
358,112;  330,157;  329,966;  328,315
358,191;  317,123;  315,276;  318,965
358,270;  293,090;  295,505;  297,695
358,349;  318,790;  321,625;  323,725
358,428;  322,757;  322,445;  326,125
358,507;  323,357;  321,366;  325,105
358,585;  323,090;  320,355;  325,525
358,664;  334,023;  332,266;  334,505
358,743;  324,723;  323,776;  326,515
358,822;  337,857;  334,475;  338,195
358,901;  308,523;  309,176;  309,505
358,980;  316,590;  310,885;  313,735
359,059;  334,857;  328,616;  332,255
359,138;  334,957;  329,415;  328,565
359,216;  327,590;  322,225;  327,485
359,295;  312,557;  309,475;  309,515
359,374;  329,857;  330,026;  333,455
359,453;  320,623;  316,345;  320,885
359,532;  313,090;  304,526;  308,455
359,610;  325,057;  319,556;  323,285
359,689;  337,290;  331,116;  333,025
359,768;  319,423;  313,706;  315,305
359,847;  307,457;  302,065;  305,385
359,925;  305,490;  304,105;  307,215
360,004;  309,723;  299,565;  302,585
360,083;  318,490;  320,165;  321,795
360,161;  312,557;  305,676;  309,885
360,240;  293,323;  288,725;  291,455
360,319;  319,023;  318,276;  317,225
360,397;  328,190;  324,986;  331,265
360,476;  322,223;  318,296;  324,355
360,555;  349,090;  345,565;  346,835
360,633;  300,890;  304,456;  304,945
360,712;  312,790;  309,056;  311,825
360,790;  336,323;  330,065;  331,185
360,869;  313,157;  310,266;  313,085
360,948;  320,457;  322,466;  322,235
361,026;  301,623;  300,065;  301,245
361,105;  313,957;  306,116;  309,875
361,183;  329,290;  324,725;  326,345
361,262;  307,723;  302,375;  307,465
361,340;  306,590;  305,815;  306,875
361,419;  290,723;  289,896;  290,845
361,497;  346,057;  340,926;  346,955
361,576;  322,057;  317,736;  323,245
361,654;  351,990;  342,736;  343,615
361,733;  297,490;  297,366;  297,305
361,811;  330,157;  329,065;  331,875
361,890;  297,990;  292,595;  293,595
361,968;  320,857;  313,706;  316,715
362,046;  335,923;  335,296;  335,795
362,125;  350,090;  337,435;  340,865
362,203;  318,357;  314,635;  316,745
362,282;  338,057;  328,676;  334,675
362,360;  324,090;  318,315;  323,125
362,438;  320,757;  313,565;  317,495
362,517;  360,090;  357,725;  357,035
362,595;  343,857;  340,956;  345,025
362,673;  339,123;  334,576;  338,035
362,752;  328,423;  326,366;  329,445
362,830;  343,523;  343,155;  338,795
362,908;  325,690;  322,885;  326,315
362,986;  337,490;  333,595;  334,645
363,065;  332,290;  326,405;  330,985
363,143;  364,623;  359,875;  363,525
363,221;  323,190;  313,755;  319,675
363,299;  321,990;  315,845;  315,595
363,378;  331,923;  327,546;  328,495
363,456;  316,557;  304,326;  305,295
363,534;  334,223;  323,996;  327,895
363,612;  334,657;  327,546;  330,285
363,690;  342,890;  337,885;  341,915
363,769;  355,157;  349,336;  354,965
363,847;  335,623;  332,326;  333,935
363,925;  306,223;  303,095;  306,775
364,003;  356,457;  350,866;  351,845
364,081;  348,590;  336,345;  339,765
364,159;  342,857;  331,836;  334,695
364,237;  349,623;  341,276;  343,025
364,315;  333,023;  318,866;  320,765
364,393;  361,890;  350,935;  355,465
364,471;  345,457;  328,185;  329,975
364,549;  357,057;  333,026;  334,495
364,627;  360,690;  323,095;  327,065
364,705;  367,190;  311,135;  310,945
364,783;  434,890;  323,496;  332,235
364,861;  981,457;  331,396;  334,915
364,939; 3523,823;  314,086;  319,855
365,017;  808,557;  306,046;  310,735
365,095;  371,490;  322,116;  324,495
365,173;  375,890;  345,556;  349,605
365,251;  388,690;  341,535;  344,665
365,329;  527,190;  346,466;  345,195
365,407; 1147,790;  318,345;  321,385
365,485;  472,523;  344,826;  348,395
365,563;  364,623;  344,306;  346,815
365,641;  341,190;  331,896;  331,005
365,719;  349,690;  337,095;  336,965
365,796;  344,423;  334,926;  336,075
365,874;  361,023;  347,426;  349,165
365,952;  322,223;  309,516;  312,925
366,030;  348,490;  334,866;  333,525
366,108;  361,490;  326,345;  328,575
366,185;  620,357;  338,396;  343,695
366,263;  874,357;  334,646;  340,035
366,341;  386,190;  334,125;  339,925
366,419;  340,457;  331,535;  331,355
366,496;  353,757;  342,655;  345,225
366,574;  329,823;  325,826;  329,315
366,652;  356,690;  345,296;  349,635
366,730;  372,323;  365,475;  368,065
366,807;  339,890;  330,845;  334,945
366,885;  334,457;  321,135;  327,175
366,963;  335,923;  329,016;  331,635
367,040;  361,490;  345,815;  352,465
367,118;  327,623;  321,875;  325,205
367,196;  350,823;  341,896;  344,715
367,273;  337,490;  335,845;  338,245
367,351;  330,857;  328,155;  331,125
367,428;  356,957;  355,016;  356,915
367,506;  337,190;  329,225;  333,905
367,584;  365,957;  360,216;  363,085
367,661;  346,923;  341,785;  346,585
367,739;  333,323;  328,466;  334,835
367,816;  329,123;  320,345;  324,175
367,894;  342,390;  339,146;  345,755
367,971;  337,057;  329,885;  333,335
368,049;  350,090;  349,586;  353,435
368,126;  322,957;  314,625;  317,265
368,204;  353,323;  351,836;  352,775
368,281;  359,157;  353,225;  355,775
368,359;  350,823;  348,806;  354,965
368,436;  350,157;  342,385;  348,785
368,514;  355,123;  349,646;  351,035
368,591;  348,023;  343,486;  348,405
368,668;  354,790;  347,486;  351,455
368,746;  362,923;  358,556;  362,125
368,823;  345,957;  342,405;  345,515
368,901;  342,423;  339,046;  341,025
368,978;  361,590;  354,975;  361,925
369,055;  346,423;  343,826;  347,145
369,133;  373,457;  367,046;  368,725
369,210;  341,957;  339,206;  342,185
369,287;  373,890;  367,986;  371,205
369,365;  372,957;  368,896;  369,715
369,442;  350,923;  346,826;  351,135
369,519;  315,357;  306,396;  310,475
369,596;  383,923;  369,005;  372,695
369,674;  337,190;  336,526;  336,705
369,751;  366,090;  368,005;  369,405
369,828;  359,423;  350,366;  351,255
369,905;  362,657;  354,796;  358,705
369,983;  332,523;  329,826;  336,485
370,060;  338,657;  335,185;  336,165
370,137;  372,090;  371,595;  373,975
370,214;  339,090;  340,246;  340,845
370,291;  357,190;  347,845;  351,965
370,368;  349,223;  345,426;  349,675
370,446;  337,323;  335,716;  337,375
370,523;  333,123;  331,586;  338,615
370,600;  354,890;  350,706;  356,355
370,677;  349,123;  345,826;  349,525
370,754;  346,990;  341,706;  344,655
370,831;  353,690;  344,885;  347,665
370,908;  373,890;  368,556;  369,945
370,985;  329,457;  326,206;  327,885
371,062;  350,757;  346,635;  347,955
371,139;  362,290;  362,125;  364,815
371,216;  358,457;  357,496;  359,475
371,293;  351,823;  350,576;  350,305
371,370;  334,323;  328,806;  332,395
371,447;  354,323;  354,736;  355,835
371,524;  372,423;  374,685;  378,505
371,601;  376,323;  371,556;  374,285
371,678;  374,823;  374,306;  375,345
371,755;  346,823;  348,526;  348,275
371,832;  373,023;  374,526;  377,175
371,909;  341,090;  342,065;  344,605
371,986;  377,123;  376,505;  379,065
372,063;  350,790;  346,195;  348,745
372,140;  358,357;  354,056;  357,495
372,216;  361,123;  360,225;  360,935
372,293;  346,123;  341,945;  344,805
372,370;  378,457;  370,236;  372,635
372,447;  364,123;  361,646;  361,385
372,524;  356,723;  349,725;  352,115
372,601;  358,423;  353,236;  356,005
372,677;  345,190;  339,586;  339,035
372,754;  351,723;  347,516;  350,955
372,831;  357,123;  354,716;  356,955
372,908;  369,123;  368,496;  364,795
372,984;  362,190;  349,246;  356,035
373,061;  341,890;  342,046;  342,845
373,138;  359,923;  349,986;  354,465
373,215;  349,523;  345,155;  346,585
373,291;  354,590;  347,556;  353,415
373,368;  357,423;  353,516;  357,375
373,445;  354,323;  348,285;  348,395
373,521;  356,623;  349,216;  353,935
373,598;  345,790;  341,766;  343,845
373,675;  335,423;  332,646;  334,115
373,751;  348,623;  345,375;  354,195
373,828;  351,257;  341,076;  346,375
373,904;  392,323;  387,225;  391,935
373,981;  338,323;  332,516;  333,585
374,057;  355,023;  353,306;  355,945
374,134;  334,057;  331,706;  334,435
374,211;  353,590;  348,826;  351,835
374,287;  340,757;  338,565;  339,035
374,364;  367,790;  362,426;  365,335
374,440;  321,457;  319,035;  321,205
374,517;  362,690;  361,625;  366,995
374,593;  321,990;  326,896;  326,865
374,670;  343,523;  340,095;  342,905
374,746;  344,423;  346,915;  349,135
374,823;  370,390;  369,255;  368,775
374,899;  374,657;  366,836;  366,475
374,975;  343,757;  336,035;  341,495
375,052;  323,690;  319,776;  326,175
375,128;  331,723;  325,956;  331,675
375,205;  360,890;  353,665;  355,605
375,281;  338,757;  337,296;  336,395
375,357;  371,757;  361,026;  364,245
375,434;  342,590;  331,986;  338,045
375,510;  353,057;  347,755;  353,175
375,586;  354,090;  347,486;  349,845
375,663;  324,090;  321,926;  323,515
375,739;  365,023;  355,716;  358,675
375,815;  344,457;  346,366;  346,765
375,892;  351,257;  344,516;  348,555
375,968;  336,390;  331,605;  336,855
376,044;  341,190;  335,866;  339,405
376,120;  340,257;  332,535;  339,615
376,197;  355,457;  348,466;  352,185
376,273;  339,857;  340,516;  341,095
376,349;  382,590;  378,366;  379,125
376,425;  367,523;  362,935;  364,425
376,501;  342,590;  344,225;  347,555
376,578;  361,590;  362,885;  363,255
376,654;  382,923;  383,866;  382,945
376,730;  366,423;  360,266;  364,005
376,806;  373,723;  375,185;  376,845
376,882;  374,457;  377,176;  378,355
376,958;  375,457;  376,706;  373,325
377,034;  325,490;  319,695;  317,895
377,111;  371,957;  368,826;  369,285
377,187;  393,223;  390,845;  391,825
377,263;  383,990;  383,885;  384,725
377,339;  352,623;  341,445;  346,375
377,415;  363,023;  366,366;  365,685
377,491;  344,957;  342,885;  347,505
377,567;  364,823;  359,755;  360,685
377,643;  389,157;  380,076;  378,785
377,719;  369,190;  363,706;  367,845
377,795;  350,857;  345,725;  349,165
377,871;  368,190;  367,866;  370,355
377,947;  352,057;  348,236;  351,215
378,023;  354,057;  345,855;  349,075
378,099;  350,123;  349,035;  350,465
378,174;  371,790;  374,176;  374,825
378,250;  361,723;  363,105;  366,955
378,326;  376,990;  366,255;  370,045
378,402;  361,023;  357,685;  360,315
378,478;  363,990;  361,605;  365,295
378,554;  371,390;  370,396;  375,075
378,630;  371,690;  365,225;  365,285
378,706;  359,490;  358,076;  357,335
378,781;  397,957;  390,875;  394,875
378,857;  368,490;  363,185;  366,505
378,933;  364,290;  360,315;  365,855
379,009;  354,657;  351,426;  351,035
379,085;  393,790;  393,826;  391,725
379,160;  383,157;  377,246;  378,485
379,236;  375,457;  374,195;  376,655
379,312;  371,590;  359,915;  361,725
379,387;  357,823;  354,486;  355,105
379,463;  369,490;  359,836;  363,685
379,539;  374,757;  370,475;  373,395
379,615;  359,390;  359,056;  358,495
379,690;  400,190;  395,035;  398,755
379,766;  383,590;  373,276;  379,335
379,842;  390,323;  391,105;  391,375
379,917;  388,457;  380,935;  388,225
379,993;  365,523;  368,366;  373,385
380,068;  359,357;  359,236;  361,755
380,144;  388,057;  381,086;  383,405
380,220;  386,057;  382,086;  386,535
380,295;  355,923;  353,005;  355,035
380,371;  356,090;  359,935;  361,545
380,446;  380,957;  377,165;  381,125
380,522;  351,390;  348,766;  349,425
380,597;  360,857;  360,486;  359,965
380,673;  397,157;  390,456;  394,425
380,748;  360,090;  358,046;  358,445
380,824;  367,590;  367,676;  369,935
380,899;  393,857;  386,216;  388,425
380,975;  368,523;  365,475;  366,905
381,050;  357,323;  352,806;  352,825
381,126;  375,890;  370,526;  373,695
381,201;  401,623;  398,806;  402,495
381,277;  377,090;  373,435;  374,795
381,352;  392,690;  388,105;  390,855
381,427;  375,757;  372,586;  376,025
381,503;  387,123;  378,896;  379,385
381,578;  362,257;  360,605;  365,515
381,653;  375,257;  368,776;  372,375
381,729;  361,357;  361,535;  360,945
381,804;  370,523;  367,475;  368,805
381,879;  391,390;  383,306;  386,055
381,955;  363,223;  354,396;  356,545
382,030;  360,823;  356,556;  357,225
382,105;  378,357;  375,586;  372,555
382,181;  370,923;  367,466;  371,255
382,256;  377,823;  378,116;  374,765
382,331;  368,990;  367,216;  371,745
382,406;  359,290;  353,266;  357,745
382,482;  362,790;  361,315;  357,655
382,557;  366,023;  363,526;  366,745
382,632;  375,157;  370,595;  371,585
382,707;  368,790;  361,135;  365,615
382,782;  370,357;  361,516;  366,275
382,857;  366,023;  358,996;  361,035
382,933;  355,757;  351,776;  352,995
383,008;  349,057;  344,065;  345,165
383,083;  383,523;  376,866;  379,215
383,158;  384,623;  378,866;  381,615
383,233;  365,357;  362,385;  363,105
383,308;  371,690;  359,875;  362,675
383,383;  390,023;  389,445;  391,785
383,458;  364,723;  361,135;  360,475
383,533;  349,257;  342,456;  344,625
383,608;  394,990;  387,885;  390,385
383,683;  390,423;  385,046;  389,585
383,758;  384,757;  380,285;  380,925
383,833;  376,957;  370,296;  371,015
383,908;  351,057;  343,206;  342,165
383,983;  349,490;  346,296;  350,755
384,058;  363,090;  355,246;  357,655
384,133;  368,490;  368,185;  368,575
384,208;  386,957;  376,796;  379,565
384,283;  354,990;  348,736;  351,825
384,358;  386,057;  381,845;  387,485
384,433;  354,590;  357,496;  357,355
384,508;  375,723;  368,966;  373,895
384,583;  370,357;  373,725;  375,265
384,658;  371,690;  367,915;  371,275
384,732;  341,557;  339,456;  339,705
384,807;  370,990;  366,935;  369,005
384,882;  372,223;  371,246;  373,145
384,957;  368,357;  368,095;  371,985
385,032;  380,123;  375,426;  376,555
385,106;  368,490;  370,216;  371,515
385,181;  355,290;  351,385;  357,155
385,256;  368,490;  363,565;  366,745
385,331;  377,690;  371,935;  373,255
385,405;  383,823;  380,975;  381,445
385,480;  370,157;  365,695;  366,715
385,555;  401,757;  399,306;  400,405
385,630;  393,857;  390,956;  395,935
385,704;  381,590;  374,056;  377,105
385,779;  369,090;  364,405;  364,855
385,854;  368,257;  368,746;  369,975
385,928;  364,823;  363,016;  365,315
386,003;  403,757;  402,586;  405,115
386,078;  377,890;  372,466;  374,995
386,152;  403,923;  401,456;  401,815
386,227;  365,423;  357,646;  361,225
386,301;  376,957;  378,725;  380,385
386,376;  356,357;  348,695;  355,015
386,450;  382,890;  378,616;  381,145
386,525;  377,457;  373,556;  377,655
386,600;  385,390;  385,746;  385,925
386,674;  367,590;  364,076;  367,315
386,749;  379,123;  375,095;  381,315
386,823;  384,657;  377,435;  382,095
386,898;  383,290;  379,766;  380,535
386,972;  386,123;  380,966;  385,985
387,047;  376,990;  369,776;  374,355
387,121;  386,790;  379,695;  380,335
387,195;  366,123;  357,875;  359,895
387,270;  388,623;  385,625;  385,415
387,344;  408,357;  404,405;  407,055
387,419;  391,123;  385,665;  393,195
387,493;  378,990;  377,776;  379,825
387,567;  356,757;  355,005;  358,475
387,642;  407,723;  403,586;  405,945
387,716;  376,290;  369,565;  372,245
387,790;  373,357;  367,706;  371,225
387,865;  377,390;  372,806;  373,715
387,939;  403,723;  403,005;  404,415
388,013;  384,357;  384,806;  386,145
388,088;  368,523;  368,655;  370,085
388,162;  375,623;  370,135;  371,835
388,236;  378,557;  372,456;  375,275
388,310;  363,623;  361,966;  364,475
388,385;  405,323;  397,185;  400,845
388,459;  386,523;  379,996;  380,235
388,533;  363,290;  363,676;  362,565
388,607;  364,790;  366,776;  365,955
388,682;  378,257;  374,806;  375,745
388,756;  367,890;  355,035;  360,825
388,830;  393,390;  390,255;  394,075
388,904;  383,823;  378,276;  385,365
388,978;  369,290;  369,535;  370,165
389,052;  379,190;  375,396;  377,225
389,126;  375,890;  370,435;  376,195
389,200;  377,923;  372,665;  377,205
389,275;  368,323;  369,266;  367,695
389,349;  379,557;  374,695;  373,065
389,423;  372,523;  369,565;  369,375
389,497;  383,857;  380,966;  383,775
389,571;  371,557;  368,665;  370,175
389,645;  381,523;  376,806;  379,805
389,719;  378,390;  369,396;  372,955
389,793;  350,357;  346,576;  348,725
389,867;  407,990;  398,035;  402,955
389,941;  379,423;  375,375;  377,215
390,015;  368,290;  361,135;  364,515
390,089;  361,623;  360,426;  362,085
390,163;  372,057;  372,456;  375,935
390,237;  383,857;  375,435;  379,295
390,310;  383,457;  379,276;  382,155
390,384;  381,390;  376,546;  383,625
390,458;  409,323;  400,826;  403,825
390,532;  388,423;  383,496;  386,725
390,606;  369,390;  365,945;  369,265
390,680;  371,657;  366,466;  368,115
390,754;  364,190;  366,385;  368,915
390,827;  394,623;  388,276;  392,645
390,901;  393,590;  391,855;  396,215
390,975;  370,390;  368,905;  370,295
391,049;  369,790;  366,366;  364,315
391,123;  364,190;  362,685;  363,545
391,196;  367,590;  367,635;  367,855
391,270;  380,990;  378,426;  377,835
391,344;  364,790;  360,056;  359,585
391,418;  377,857;  372,975;  372,155
391,491;  362,923;  362,655;  363,995
391,565;  365,957;  362,065;  366,105
391,639;  397,523;  394,345;  397,875
391,712;  386,223;  385,815;  384,375
391,786;  385,890;  382,646;  386,785
391,860;  373,423;  369,385;  370,925
391,933;  375,757;  369,935;  371,115
392,007;  374,857;  371,355;  380,875
392,081;  402,790;  396,456;  399,955
392,154;  384,023;  377,845;  383,895
392,228;  392,457;  391,366;  394,685
392,301;  379,123;  376,266;  381,275
392,375;  394,090;  386,076;  389,995
392,448;  387,357;  379,516;  384,445
392,522;  377,857;  376,236;  379,965
392,595;  375,057;  370,105;  374,245
392,669;  380,623;  376,116;  379,675
392,742;  394,257;  390,975;  396,915
392,816;  401,857;  397,296;  400,205
392,889;  398,190;  392,746;  396,605
392,963;  411,323;  409,095;  409,745
393,036;  388,790;  385,345;  386,785
393,110;  392,457;  391,155;  393,885
393,183;  407,890;  400,836;  405,685
393,257;  419,123;  415,456;  417,745
393,330;  366,357;  365,845;  369,745
393,403;  394,123;  390,486;  395,585
393,477;  359,423;  355,845;  358,875
393,550;  393,323;  390,306;  395,545
393,623;  387,890;  388,396;  388,295
393,697;  405,357;  406,056;  406,835
393,770;  387,657;  376,556;  379,065
393,843;  408,923;  402,996;  406,915
393,917;  403,723;  394,216;  398,485
393,990;  408,857;  409,996;  410,125
394,063;  393,557;  386,855;  392,225
394,136;  393,990;  388,635;  391,675
394,210;  397,357;  393,336;  395,655
394,283;  408,057;  402,785;  407,175
394,356;  403,123;  399,165;  399,175
394,429;  405,190;  396,935;  398,825
394,502;  387,690;  382,016;  383,895
394,576;  418,190;  414,125;  414,715
394,649;  380,857;  378,776;  377,865
394,722;  405,657;  400,896;  403,785
394,795;  414,290;  408,306;  413,185
394,868;  388,457;  384,135;  385,985
394,941;  376,823;  376,435;  375,265
395,014;  419,957;  417,056;  420,205
395,088;  397,490;  398,956;  399,175
395,161;  400,823;  395,466;  398,685
395,234;  406,957;  409,236;  410,735
395,307;  405,390;  402,236;  405,525
395,380;  386,857;  384,736;  385,325
395,453;  434,223;  436,845;  437,285
395,526;  416,757;  408,385;  412,495
395,599;  429,390;  426,926;  430,645
395,672;  392,890;  394,586;  394,895
395,745;  417,990;  417,125;  421,075
395,818;  378,423;  376,306;  378,615
395,891;  392,890;  385,635;  387,695
395,964;  414,657;  415,896;  414,885
396,036;  387,490;  387,486;  384,175
396,109;  390,023;  392,076;  395,785
396,182;  400,657;  396,766;  399,545
396,255;  405,657;  399,225;  398,845
396,328;  415,290;  410,065;  411,075
396,401;  372,757;  370,746;  371,295
396,474;  381,723;  381,086;  381,505
396,547;  402,223;  397,046;  400,645
396,619;  397,123;  390,755;  390,525
396,692;  410,490;  404,866;  411,355
396,765;  376,057;  370,616;  372,985
396,838;  391,790;  388,225;  388,295
396,911;  379,290;  371,266;  373,155
396,983;  398,757;  392,496;  392,385
397,056;  374,923;  372,355;  374,095
397,129;  390,223;  387,796;  389,615
397,201;  394,257;  391,556;  389,605
397,274;  388,123;  385,366;  389,335
397,347;  364,357;  363,345;  363,665
397,420;  391,690;  384,605;  387,195
397,492;  388,323;  388,296;  388,685
397,565;  383,390;  375,915;  379,595
397,637;  367,190;  369,366;  372,085
397,710;  353,523;  351,586;  350,295
397,783;  410,590;  412,855;  414,805
397,855;  344,890;  345,345;  347,055
397,928;  368,790;  368,336;  371,095
398,000;  396,757;  395,866;  396,635
398,073;  384,923;  386,546;  384,745
398,146;  379,790;  376,706;  377,295
398,218;  394,557;  390,255;  393,135
398,291;  388,890;  385,806;  387,915
398,363;  384,490;  381,755;  384,505
398,436;  369,857;  369,855;  374,675
398,508;  387,723;  383,266;  385,345
398,581;  379,090;  378,206;  380,565
398,653;  382,257;  374,255;  373,825
398,726;  382,723;  378,535;  383,385
398,798;  390,090;  383,306;  387,885
398,870;  392,990;  391,116;  396,905
398,943;  371,590;  366,236;  369,775
399,015;  370,557;  365,676;  368,815
399,088;  387,123;  389,655;  388,435
399,160;  367,757;  368,076;  368,815
399,232;  355,823;  350,405;  352,095
399,305;  372,057;  368,435;  372,935
399,377;  382,923;  377,905;  377,535
399,449;  385,623;  386,246;  388,735
399,522;  425,790;  421,875;  424,965
399,594;  366,357;  364,576;  365,315
399,666;  385,357;  382,625;  385,235
399,738;  372,123;  373,336;  375,225
399,811;  373,990;  376,736;  377,025
399,883;  390,690;  386,105;  388,295
399,955;  390,823;  389,855;  389,195
400,027;  353,623;  345,945;  349,545
400,100;  414,290;  407,366;  409,275
400,172;  349,390;  348,296;  349,645
400,244;  378,457;  378,225;  381,195
400,316;  401,790;  393,016;  393,505
400,388;  389,723;  389,385;  393,005
400,460;  367,657;  359,306;  364,605
400,532;  352,323;  350,826;  351,835
400,605;  380,323;  377,736;  384,975
400,677;  406,057;  402,285;  404,675
400,749;  398,690;  395,685;  398,125
400,821;  384,590;  385,956;  388,105
400,893;  376,657;  379,445;  382,305
400,965;  389,557;  386,755;  392,785
401,037;  391,657;  387,565;  392,525
401,109;  372,323;  370,725;  373,835
401,181;  387,357;  380,716;  385,485

